0.839639
0.268313
0.268288
0.268306
0.839641
0.268359
0.839639
0.839672
0.839639
0.839706
0.839639
0.839639
0.839713
0.839605
0.268338
0.268473
0.839652
0.519299
0.268402
0.268228
0.839639
0.268334
0.268343
0.268385
0.839683
0.839713
0.268243
0.839634
0.839749
0.839638
0.268415
0.268336
0.268410
0.839745
0.268415
0.839678
0.268390
0.796806
0.268415
0.268228
0.268422
0.839652
0.268410
0.839626
0.268305
0.839745
0.268410
0.268348
0.268288
0.839613
0.794809
0.268369
0.839751
0.839652
0.839632
0.268374
0.268415
0.839609
0.839639
0.268415
0.281793
0.268270
0.839639
0.268447
0.268248
0.268276
0.839624
0.839639
0.839639
0.268257
0.839665
0.268410
0.839658
0.519299
0.268305
0.268388
0.839652
0.268385
0.268292
0.268305
0.268384
0.268314
0.839605
0.268228
0.268472
0.268432
0.839670
0.839745
0.839638
0.839745
0.268270
0.268313
0.268313
0.839643
0.268374
0.268433
0.268359
0.268319
0.839709
0.268228
0.839607
0.268443
0.268443
0.839692
0.839641
0.268402
0.839614
0.268385
0.268255
0.839747
0.268228
0.839745
0.268472
0.838839
0.268270
0.268306
0.839615
0.268384
0.268269
0.839633
0.839667
0.839751
0.268422
0.839712
0.268228
0.839652
0.839639
0.839699
0.268415
0.268305
0.390978
0.268228
0.839743
0.268321
0.268459
0.839661
0.839633
0.519299
0.839699
0.839619
0.839745
0.839664
0.268447
0.268384
0.839745
0.268288
0.268336
0.839683
0.842953
0.268440
0.839596
0.839745
0.268426
0.268410
0.839745
0.839734
0.268276
0.839723
0.839690
0.839604
0.268364
0.839745
0.839614
0.268374
0.838839
0.268443
0.268472
0.268432
0.268415
0.839712
0.839640
0.839638
0.839627
0.839646
0.839658
0.839604
0.838839
0.268400
0.268305
0.839678
0.330631
0.268415
0.839720
0.268433
0.839646
0.268269
0.268276
0.839739
0.765747
0.268415
0.268410
0.839677
0.839716
0.268305
0.839615
0.839734
0.839639
0.839639
0.839633
0.839641
0.268338
0.268481
0.839750
0.268270
0.268343
0.839711
0.839658
0.839665
0.268407
0.839745
0.268306
0.839745
0.839605
0.268343
0.268334
0.839632
0.268415
0.839716
0.268280
0.268334
0.839635
0.268410
0.268472
0.268319
0.839603
0.268305
0.839734
0.268427
0.268384
0.268447
0.268343
0.839608
0.268255
0.839713
0.839635
0.268391
0.268407
0.268269
0.268410
0.268331
0.839753
0.268359
0.839745
0.268313
0.268305
0.839664
0.839610
0.268305
0.839658
0.268410
0.839642
0.268306
0.268400
0.268334
0.281793
0.839763
0.268359
0.839670
0.839643
0.268481
0.839641
0.839743
0.839641
0.268331
0.839745
0.839605
0.839641
0.268426
0.839742
0.268334
0.839698
0.839699
0.839614
0.268279
0.268407
0.839601
0.268319
0.839605
0.268314
0.268359
0.839745
0.839641
0.839742
0.268305
0.268443
0.328877
0.839617
0.839645
0.268407
0.839713
0.268410
0.268228
0.268433
0.268270
0.839704
0.839745
0.268257
0.839641
0.839601
0.839742
0.268415
0.839622
0.839615
0.839736
0.268343
0.268359
0.839643
0.268270
0.839679
0.268343
0.268410
0.839701
0.268481
0.839639
0.268385
0.839706
0.268432
0.268359
0.533185
0.268248
0.268319
0.839743
0.268257
0.268292
0.268319
0.839706
0.765747
0.268334
0.839615
0.839742
0.839641
0.268393
0.268415
0.839605
0.268288
0.839706
0.268334
0.268410
0.839614
0.268319
0.839683
0.839734
0.839704
0.268415
0.268459
0.839678
0.268279
0.268407
0.839643
0.839639
0.268472
0.268321
0.839650
0.839639
0.278714
0.268283
0.268407
0.268359
0.839673
0.789465
0.839745
0.268454
0.839704
0.268427
0.268407
0.268407
0.839706
0.268427
0.268410
0.268306
0.268313
0.268266
0.268305
0.839745
0.268374
0.839710
0.268415
0.794809
0.268400
0.268359
0.268288
0.839713
0.839751
0.268248
0.268248
0.268288
0.839605
0.268276
0.268276
0.268270
0.268415
0.268319
0.268243
0.839639
0.839646
0.268410
0.839596
0.268270
0.268410
0.839607
0.268343
0.839745
0.268334
0.839633
0.765747
0.268257
0.268422
0.839613
0.839690
0.793610
0.839639
0.839700
0.839684
0.268257
0.268407
0.268427
0.839641
0.268374
0.839601
0.839639
0.839745
0.839639
0.268270
0.268443
0.268306
0.268458
0.839621
0.839745
0.268481
0.268407
0.268343
0.268415
0.839697
0.268422
0.839752
0.268319
0.839699
0.281793
0.268385
0.839678
0.268359
0.268414
0.839745
0.268454
0.268415
0.839713
0.839745
0.839745
0.839726
0.268458
0.794809
0.268432
0.268257
0.839745
0.268407
0.839617
0.268400
0.268410
0.268319
0.268279
0.268422
0.839679
0.268334
0.268426
0.268359
0.268415
0.839615
0.839734
0.519299
0.839661
0.268374
0.268319
0.839639
0.839623
0.839699
0.268321
0.268314
0.839724
0.268426
0.268305
0.268314
0.268359
0.839745
0.839666
0.839601
0.839639
0.268379
0.839621
0.268255
0.839641
0.268270
0.839688
0.268447
0.839677
0.268257
0.268321
0.268359
0.839658
0.839610
0.268304
0.268473
0.268321
0.839603
0.838691
0.268407
0.268343
0.268321
0.268410
0.839645
0.268400
0.268481
0.268276
0.268243
0.839716
0.839743
0.268231
0.268276
0.268415
0.839742
0.268228
0.268243
0.268473
0.839734
0.268410
0.839697
0.268407
0.839695
0.839713
0.268427
0.839632
0.268359
0.839747
0.268334
0.268472
0.839713
0.268481
0.839745
0.268257
0.839692
0.839658
0.268410
0.268257
0.268334
0.839642
0.268400
0.839639
0.519299
0.268415
0.533185
0.839667
0.268385
0.839701
0.268343
0.268407
0.839742
0.268228
0.268279
0.839745
0.839626
0.839745
0.839673
0.839713
0.268410
0.268305
0.268454
0.839726
0.268415
0.839745
0.839639
0.268336
0.268321
0.268288
0.839745
0.838286
0.839747
0.268237
0.268334
0.835935
0.839635
0.268288
0.268243
0.839639
0.268248
0.268415
0.839663
0.268334
0.268422
0.268279
0.268243
0.839699
0.268415
0.839613
0.268336
0.839768
0.268385
0.268443
0.839739
0.839672
0.835935
0.839680
0.268400
0.268270
0.268422
0.268415
0.268410
0.839745
0.268407
0.839601
0.268374
0.268390
0.268243
0.268415
0.839615
0.268276
0.839641
0.839620
0.268426
0.839704
0.839718
0.839709
0.839737
0.268385
0.268228
0.839597
0.839701
0.268248
0.839745
0.268426
0.268314
0.268305
0.268319
0.839639
0.268369
0.268432
0.268415
0.629424
0.268407
0.839639
0.268390
0.839638
0.519299
0.839683
0.839724
0.839610
0.268305
0.839613
0.839641
0.839641
0.839745
0.268288
0.268415
0.268338
0.268415
0.268276
0.839658
0.268313
0.839736
0.268374
0.268323
0.278714
0.839748
0.839643
0.268402
0.839623
0.268433
0.839734
0.268374
0.268313
0.268270
0.839641
0.839614
0.268306
0.268407
0.268433
0.839745
0.268454
0.839745
0.268384
0.839639
0.268313
0.268228
0.839719
0.839641
0.839707
0.268306
0.839720
0.838839
0.839713
0.839598
0.268426
0.839729
0.268243
0.268343
0.839652
0.268415
0.268427
0.839690
0.839594
0.268410
0.268390
0.268321
0.268359
0.268410
0.268407
0.839641
0.839713
0.839704
0.268410
0.268473
0.268402
0.839663
0.839701
0.839639
0.268410
0.839707
0.268390
0.268415
0.268321
0.839618
0.839636
0.268410
0.839641
0.839709
0.839745
0.839633
0.268407
0.839664
0.268305
0.268276
0.268374
0.839652
0.268305
0.839683
0.268336
0.839633
0.268334
0.839751
0.835935
0.839706
0.839639
0.838691
0.839746
0.839675
0.281793
0.839751
0.268407
0.839729
0.268400
0.839601
0.268270
0.268379
0.839639
0.268410
0.268292
0.839636
0.839631
0.330631
0.268255
0.268270
0.839733
0.268270
0.268305
0.268228
0.839745
0.839699
0.268415
0.268248
0.268283
0.268415
0.268402
0.268343
0.839639
0.839639
0.390978
0.268290
0.839605
0.268385
0.839745
0.839614
0.268270
0.268407
0.268288
0.839714
0.268402
0.268443
0.268343
0.839639
0.268248
0.268369
0.268481
0.268407
0.268359
0.268336
0.839676
0.839639
0.839752
0.839719
0.839639
0.839639
0.839615
0.839742
0.839594
0.268374
0.268336
0.268415
0.839634
0.839641
0.268385
0.268321
0.268472
0.839698
0.839626
0.839614
0.839639
0.268402
0.268426
0.268407
0.839755
0.268415
0.839745
0.839641
0.268334
0.839639
0.268283
0.268400
0.268270
0.268422
0.839736
0.268270
0.839712
0.839746
0.839720
0.268384
0.839639
0.839682
0.268410
0.268270
0.839605
0.839592
0.268228
0.268458
0.839745
0.839640
0.268410
0.268228
0.839658
0.268270
0.268390
0.268400
0.268415
0.839736
0.268321
0.839649
0.839631
0.268415
0.268410
0.839696
0.268228
0.839639
0.519299
0.839714
0.839713
0.839623
0.330631
0.839745
0.268334
0.268334
0.268415
0.268410
0.268415
0.268270
0.839595
0.268270
0.839699
0.839745
0.268390
0.839639
0.839745
0.839732
0.268269
0.839745
0.839685
0.839739
0.268255
0.268415
0.268334
0.268374
0.842953
0.268415
0.268433
0.268359
0.268481
0.268243
0.268410
0.268288
0.839706
0.268415
0.839657
0.839604
0.839679
0.839662
0.268319
0.268257
0.839743
0.268410
0.839711
0.839733
0.839729
0.268410
0.268270
0.268433
0.268481
0.328877
0.268443
0.281793
0.838839
0.839639
0.268414
0.268385
0.839640
0.268306
0.839733
0.268343
0.268321
0.268334
0.268407
0.268343
0.839732
0.268407
0.839639
0.796806
0.839742
0.839683
0.268306
0.268472
0.839752
0.268270
0.268255
0.268321
0.268407
0.839640
0.268313
0.382094
0.839638
0.268283
0.268410
0.268343
0.268400
0.839729
0.268321
0.268364
0.839701
0.268439
0.839699
0.268415
0.839745
0.839745
0.268270
0.268306
0.839736
0.629424
0.839627
0.839706
0.268334
0.839702
0.268473
0.839641
0.839716
0.839716
0.268472
0.268481
0.268257
0.839637
0.839677
0.268306
0.268343
0.268410
0.268306
0.268374
0.839615
0.839674
0.839699
0.839664
0.268410
0.839742
0.839641
0.268237
0.268410
0.839639
0.268334
0.268432
0.268322
0.839639
0.268410
0.278714
0.268269
0.268407
0.839597
0.268313
0.839713
0.839725
0.268255
0.268368
0.268283
0.268306
0.839682
0.268427
0.839742
0.839720
0.268481
0.839710
0.839745
0.268427
0.839632
0.268359
0.268440
0.839601
0.268280
0.268407
0.839658
0.839739
0.268334
0.839595
0.839639
0.839697
0.839641
0.330631
0.268228
0.839605
0.268334
0.268415
0.268288
0.839745
0.268410
0.839639
0.268415
0.268407
0.629424
0.839639
0.629424
0.268481
0.839697
0.839639
0.839641
0.839639
0.268305
0.839679
0.839645
0.268402
0.268407
0.268415
0.839601
0.268415
0.268279
0.268447
0.268343
0.839603
0.839745
0.268440
0.839633
0.268407
0.839635
0.268415
0.839601
0.268384
0.268386
0.268415
0.268270
0.839678
0.838691
0.839695
0.839682
0.839683
0.839706
0.268255
0.839630
0.839615
0.268288
0.268385
0.839716
0.268415
0.839623
0.839639
0.268243
0.268334
0.268400
0.268270
0.330631
0.838691
0.268407
0.839645
0.268407
0.268410
0.268321
0.839716
0.268237
0.839745
0.268269
0.268454
0.839677
0.839643
0.268447
0.839663
0.839745
0.839745
0.268439
0.390978
0.268270
0.268443
0.268415
0.268432
0.268426
0.268415
0.268385
0.268426
0.839640
0.268343
0.268334
0.839736
0.268288
0.839658
0.839618
0.839639
0.839607
0.839684
0.268400
0.268415
0.268279
0.839658
0.268359
0.839622
0.839634
0.390978
0.839652
0.839618
0.839755
0.268374
0.839624
0.268248
0.268288
0.268244
0.839664
0.629424
0.839749
0.839680
0.839639
0.268390
0.268334
0.839641
0.839622
0.839720
0.268472
0.268359
0.839719
0.268374
0.839734
0.839734
0.839687
0.268270
0.268472
0.839747
0.268433
0.839675
0.268306
0.268415
0.268338
0.268306
0.268279
0.839680
0.839685
0.268269
0.268407
0.268319
0.839745
0.268313
0.268410
0.268390
0.839689
0.839745
0.839701
0.629424
0.839641
0.839637
0.839713
0.629424
0.268481
0.839639
0.839739
0.839745
0.839646
0.268454
0.268319
0.839623
0.839676
0.839626
0.268359
0.839680
0.839768
0.268410
0.268374
0.268323
0.268410
0.839742
0.839745
0.839739
0.839662
0.268400
0.268243
0.268334
0.268276
0.268473
0.268369
0.268276
0.268415
0.268259
0.268336
0.268410
0.268400
0.839745
0.839736
0.268410
0.268402
0.268407
0.268237
0.268426
0.268331
0.839676
0.268422
0.839754
0.268338
0.268334
0.839685
0.839605
0.268279
0.839607
0.268426
0.839670
0.794809
0.268336
0.268415
0.839745
0.839612
0.268472
0.268443
0.839749
0.268306
0.268415
0.268415
0.268410
0.268257
0.839613
0.796806
0.268374
0.839718
0.268410
0.839641
0.268407
0.268390
0.839641
0.268334
0.839592
0.268276
0.268270
0.268267
0.268443
0.268410
0.839632
0.629424
0.328877
0.268255
0.268257
0.839734
0.839745
0.839745
0.839676
0.268433
0.268321
0.839617
0.268459
0.839745
0.268410
0.839713
0.268364
0.268276
0.839623
0.839641
0.268255
0.268400
0.268314
0.268369
0.839671
0.268276
0.268422
0.839745
0.268374
0.268270
0.839699
0.268472
0.839641
0.839738
0.839639
0.839639
0.839601
0.839676
0.268481
0.268420
0.268447
0.839692
0.268319
0.839676
0.268288
0.268283
0.268338
0.839745
0.268359
0.268321
0.268432
0.839639
0.268384
0.268407
0.839745
0.839678
0.268407
0.839721
0.839621
0.839700
0.839719
0.839632
0.268481
0.268407
0.268410
0.268270
0.268410
0.268385
0.268410
0.268432
0.839724
0.839745
0.268374
0.839639
0.839745
0.268459
0.268481
0.268433
0.268407
0.268426
0.268359
0.268454
0.268415
0.268481
0.839742
0.839722
0.268257
0.839672
0.839641
0.839716
0.268288
0.268427
0.268279
0.839742
0.839672
0.839610
0.839638
0.839745
0.268415
0.268407
0.268314
0.839709
0.268481
0.839709
0.839658
0.839630
0.839739
0.268269
0.268306
0.268334
0.268359
0.268447
0.268402
0.268305
0.268481
0.839613
0.839641
0.839699
0.268374
0.268385
0.268321
0.838286
0.839632
0.268343
0.839641
0.839641
0.268410
0.268407
0.268415
0.839662
0.268385
0.268270
0.268338
0.839619
0.839672
0.268415
0.765747
0.268458
0.839639
0.839605
0.839657
0.839614
0.268248
0.268228
0.268255
0.268407
0.268410
0.268276
0.268334
0.268415
0.268336
0.268433
0.839736
0.268440
0.268270
0.268359
0.839641
0.839734
0.839755
0.268257
0.268447
0.268321
0.839742
0.268321
0.268410
0.268407
0.268385
0.268400
0.268270
0.839745
0.839745
0.268228
0.839742
0.268415
0.268334
0.268400
0.839739
0.839626
0.839699
0.268359
0.839676
0.268374
0.839682
0.268270
0.839742
0.268407
0.839662
0.839641
0.839683
0.268270
0.839652
0.839734
0.839639
0.839720
0.268447
0.268369
0.839639
0.268432
0.268368
0.268440
0.268433
0.268385
0.839683
0.268393
0.268415
0.268433
0.268407
0.839639
0.268276
0.839697
0.839695
0.268359
0.839626
0.840555
0.839745
0.839745
0.839596
0.839639
0.839745
0.268407
0.268336
0.268244
0.268385
0.268279
0.839721
0.268402
0.268270
0.268410
0.839662
0.839745
0.839641
0.268400
0.839601
0.839746
0.839614
0.839730
0.268427
0.278714
0.839695
0.839745
0.839631
0.839745
0.268336
0.268270
0.839720
0.268410
0.268443
0.839745
0.268407
0.268407
0.839688
0.268415
0.839698
0.268422
0.839677
0.839745
0.268237
0.839638
0.839755
0.268390
0.268472
0.839716
0.839739
0.268334
0.839751
0.268243
0.268334
0.268305
0.268334
0.268402
0.839718
0.268369
0.268270
0.839743
0.268400
0.268248
0.839662
0.839745
0.839639
0.268331
0.268336
0.268410
0.268369
0.268422
0.278714
0.268288
0.839676
0.839604
0.839613
0.268415
0.268410
0.268306
0.839743
0.268334
0.863389
0.839604
0.839716
0.268336
0.268336
0.268359
0.268343
0.268410
0.839755
0.268279
0.268338
0.839638
0.268385
0.268368
0.268257
0.268415
0.268472
0.268481
0.839739
0.268334
0.268237
0.839732
0.839645
0.268410
0.268400
0.268447
0.268407
0.268385
0.839745
0.839639
0.268415
0.839745
0.839745
0.839665
0.839739
0.268359
0.839745
0.839721
0.268253
0.839736
0.839745
0.268443
0.839666
0.268313
0.268434
0.268410
0.839636
0.268243
0.268270
0.268306
0.839661
0.268305
0.390978
0.839640
0.839614
0.268384
0.839721
0.268243
0.839745
0.268255
0.835935
0.839739
0.839712
0.839639
0.268415
0.268410
0.268384
0.268407
0.839682
0.268283
0.839643
0.268415
0.268410
0.838839
0.839685
0.839706
0.268415
0.268407
0.268334
0.839730
0.839641
0.839660
0.839742
0.839616
0.268257
0.278714
0.268415
0.268400
0.839653
0.268305
0.268255
0.839639
0.839741
0.268390
0.268481
0.268283
0.839637
0.839652
0.268255
0.268314
0.268305
0.268288
0.268410
0.268305
0.268433
0.268400
0.268248
0.268359
0.268359
0.839676
0.268343
0.268402
0.268343
0.839679
0.268400
0.268305
0.839745
0.268270
0.839641
0.268270
0.839673
0.839683
0.268402
0.839682
0.268228
0.839733
0.268426
0.839745
0.268481
0.268407
0.839709
0.268331
0.268410
0.839592
0.268447
0.268270
0.839642
0.839676
0.839677
0.268440
0.268269
0.268343
0.268410
0.839751
0.839675
0.839675
0.268336
0.839746
0.268314
0.839751
0.839712
0.839692
0.268380
0.268385
0.839646
0.268422
0.268415
0.268321
0.839730
0.839620
0.268440
0.268410
0.268447
0.839592
0.268228
0.268306
0.268410
0.268415
0.268374
0.839614
0.519299
0.839748
0.839615
0.839623
0.268390
0.268415
0.268415
0.839621
0.268334
0.839604
0.839641
0.268288
0.268334
0.839721
0.839733
0.839643
0.839639
0.268319
0.268343
0.839706
0.278714
0.268415
0.268343
0.839755
0.268432
0.839726
0.268410
0.268355
0.839645
0.278714
0.839695
0.839623
0.839751
0.839641
0.839639
0.839642
0.839615
0.268313
0.839669
0.839742
0.268410
0.268410
0.839643
0.268270
0.268473
0.839690
0.268343
0.268334
0.268314
0.268407
0.839751
0.268228
0.839716
0.268255
0.268415
0.839745
0.839701
0.839713
0.839639
0.268407
0.839695
0.268360
0.839756
0.268407
0.268364
0.268410
0.268243
0.268440
0.268407
0.268334
0.268410
0.268410
0.839639
0.839715
0.268276
0.839639
0.839697
0.839621
0.268384
0.268439
0.839751
0.268422
0.838286
0.839652
0.268427
0.268334
0.268407
0.839639
0.268248
0.839745
0.268270
0.268415
0.268407
0.838691
0.839745
0.839603
0.268473
0.839641
0.268359
0.839639
0.268359
0.839674
0.268228
0.268472
0.268422
0.839609
0.268400
0.268343
0.268321
0.278714
0.268276
0.268323
0.268280
0.268334
0.839739
0.839679
0.839736
0.839745
0.268407
0.839713
0.839753
0.839756
0.839639
0.839641
0.839640
0.839641
0.268288
0.268410
0.839682
0.268481
0.268410
0.268415
0.839706
0.268385
0.268407
0.268374
0.839745
0.268407
0.268255
0.268359
0.839678
0.268267
0.268334
0.268334
0.268321
0.268248
0.268415
0.268306
0.268407
0.839639
0.838286
0.268276
0.268422
0.268385
0.839746
0.268276
0.278714
0.839685
0.839685
0.839745
0.268407
0.268384
0.839742
0.839716
0.268400
0.839718
0.839639
0.839642
0.839662
0.839664
0.839678
0.839639
0.839716
0.268286
0.268359
0.268257
0.268374
0.268288
0.268410
0.839696
0.268306
0.839745
0.839624
0.268385
0.839614
0.268415
0.268447
0.268400
0.268313
0.278714
0.839747
0.268270
0.268454
0.268338
0.268410
0.268319
0.839641
0.839633
0.839614
0.268321
0.268415
0.629424
0.839662
0.839701
0.268420
0.839750
0.268407
0.268415
0.839738
0.839745
0.839641
0.839745
0.519299
0.839680
0.268415
0.839677
0.268426
0.839713
0.268319
0.839607
0.268368
0.268407
0.268415
0.268306
0.268407
0.268314
0.268415
0.839639
0.268407
0.839745
0.839755
0.839678
0.330631
0.839639
0.268284
0.268276
0.268390
0.268385
0.839738
0.268374
0.268243
0.839722
0.268407
0.268433
0.268443
0.268402
0.268410
0.268228
0.268331
0.839632
0.839641
0.268443
0.839710
0.268338
0.268410
0.268288
0.268248
0.268319
0.268447
0.268481
0.268313
0.839750
0.839745
0.839632
0.268255
0.268400
0.839734
0.839742
0.839745
0.268410
0.268331
0.839639
0.839639
0.268459
0.268440
0.839596
0.839714
0.268433
0.268334
0.268422
0.268400
0.839709
0.839763
0.268415
0.839667
0.268390
0.268427
0.268331
0.268359
0.268334
0.268313
0.839643
0.268270
0.268407
0.839729
0.833441
0.839603
0.268443
0.268454
0.839742
0.268410
0.839639
0.268407
0.839682
0.268415
0.268410
0.268385
0.268400
0.839741
0.839752
0.268305
0.839639
0.268415
0.268385
0.839753
0.278714
0.268270
0.268407
0.839645
0.268369
0.839723
0.268407
0.268343
0.268336
0.268407
0.268283
0.268415
0.839675
0.839639
0.268374
0.839678
0.268270
0.839745
0.268415
0.839639
0.268288
0.268385
0.839601
0.268415
0.839675
0.838839
0.839745
0.268422
0.839751
0.839680
0.268407
0.839698
0.268400
0.839717
0.268410
0.268374
0.268426
0.839641
0.268374
0.839685
0.268407
0.839621
0.268331
0.268415
0.268410
0.268319
0.839678
0.268415
0.839641
0.839653
0.268359
0.268415
0.268407
0.268305
0.839622
0.839641
0.268255
0.839653
0.268415
0.268410
0.839745
0.268334
0.268228
0.839733
0.839713
0.519299
0.268410
0.268384
0.839734
0.268385
0.839603
0.268390
0.268402
0.268228
0.839713
0.839745
0.839639
0.268336
0.268443
0.519299
0.268368
0.839721
0.268415
0.839664
0.268270
0.839639
0.839729
0.839713
0.839743
0.268407
0.268390
0.268334
0.835935
0.268385
0.268374
0.268410
0.839745
0.268407
0.839658
0.839662
0.839658
0.268334
0.796806
0.839642
0.268243
0.839742
0.268248
0.268415
0.268270
0.629424
0.268432
0.839601
0.839742
0.268432
0.839677
0.839707
0.839750
0.839690
0.268374
0.268319
0.839637
0.268306
0.268288
0.268283
0.839684
0.839713
0.268415
0.839768
0.268336
0.268415
0.268384
0.839616
0.268407
0.268279
0.268314
0.839747
0.839610
0.268385
0.268472
0.268288
0.839699
0.268400
0.268481
0.268447
0.839613
0.839736
0.268243
0.839643
0.268331
0.268410
0.268407
0.839711
0.839697
0.268410
0.268359
0.268407
0.268306
0.839657
0.839639
0.839592
0.839745
0.839604
0.839676
0.268288
0.268334
0.268400
0.839620
0.268407
0.268447
0.839711
0.268407
0.839734
0.268319
0.268407
0.839613
0.268390
0.268255
0.268243
0.839768
0.839623
0.838691
0.268336
0.839639
0.268343
0.268407
0.268255
0.268390
0.839690
0.268433
0.268319
0.839601
0.268248
0.839642
0.268454
0.268338
0.268228
0.570500
0.839649
0.268321
0.268415
0.839746
0.839717
0.268402
0.268374
0.268369
0.268369
0.839736
0.268447
0.839592
0.268410
0.839717
0.268472
0.839682
0.268458
0.839736
0.839734
0.839678
0.839735
0.268390
0.268343
0.268269
0.268270
0.268410
0.268306
0.839641
0.268319
0.268237
0.268415
0.839598
0.268270
0.268276
0.839641
0.268415
0.268276
0.839745
0.796806
0.839641
0.268237
0.839623
0.839676
0.268433
0.839704
0.268313
0.268481
0.839745
0.268385
0.839739
0.268410
0.268407
0.839729
0.839639
0.268319
0.268284
0.268374
0.839598
0.268283
0.839711
0.268314
0.839638
0.268410
0.839745
0.839694
0.268415
0.268334
0.268334
0.268321
0.839612
0.839739
0.268440
0.268314
0.268415
0.839745
0.839592
0.278714
0.839739
0.268410
0.839641
0.268270
0.839716
0.839641
0.268276
0.839734
0.268237
0.268228
0.268270
0.839601
0.839701
0.268415
0.268343
0.839639
0.268314
0.268415
0.838286
0.268305
0.268407
0.268384
0.839652
0.839630
0.839672
0.268410
0.839697
0.268321
0.839755
0.839639
0.268237
0.268359
0.268270
0.268415
0.268270
0.839595
0.839745
0.839639
0.839662
0.839641
0.839641
0.839621
0.268359
0.273488
0.268443
0.839641
0.268338
0.268237
0.839709
0.268427
0.268319
0.268334
0.268313
0.839709
0.268257
0.278714
0.268415
0.268472
0.268321
0.268473
0.839662
0.839639
0.268237
0.839745
0.839706
0.839745
0.839683
0.268338
0.268400
0.268426
0.839653
0.268334
0.839719
0.268415
0.268334
0.268407
0.839643
0.286471
0.839633
0.839713
0.268454
0.268415
0.268313
0.268415
0.268415
0.839682
0.839652
0.839716
0.268343
0.330631
0.268400
0.268407
0.268288
0.839620
0.268447
0.839639
0.839663
0.268255
0.839679
0.839730
0.839636
0.839630
0.268306
0.268410
0.839699
0.268410
0.268410
0.268276
0.839623
0.268321
0.839613
0.268305
0.268410
0.629424
0.268338
0.268410
0.268422
0.839639
0.268384
0.839742
0.268364
0.268420
0.268276
0.839755
0.839745
0.839763
0.268415
0.839662
0.839674
0.839679
0.839745
0.268426
0.268440
0.268313
0.839745
0.268400
0.839614
0.839700
0.268334
0.268305
0.839742
0.839704
0.268336
0.268270
0.839745
0.268313
0.268270
0.268407
0.839634
0.839664
0.268313
0.268338
0.839745
0.268384
0.839652
0.268237
0.839646
0.268473
0.268334
0.268427
0.268288
0.268228
0.268270
0.268426
0.268472
0.268410
0.268248
0.839745
0.268369
0.839641
0.268305
0.268270
0.839627
0.268390
0.268343
0.268313
0.268331
0.839710
0.268415
0.839745
0.839607
0.839639
0.268343
0.838839
0.839679
0.268284
0.838691
0.839700
0.839640
0.268314
0.268338
0.268237
0.268270
0.268374
0.268369
0.268241
0.839673
0.839745
0.839711
0.268400
0.268334
0.268374
0.268270
0.268390
0.839658
0.839700
0.839745
0.839641
0.519299
0.839712
0.268447
0.839650
0.839743
0.839739
0.268402
0.839745
0.268343
0.268336
0.268270
0.268364
0.268292
0.268415
0.268385
0.839750
0.839727
0.268237
0.268410
0.839732
0.268319
0.268402
0.839595
0.839599
0.268228
0.268306
0.268270
0.268443
0.839632
0.839745
0.839746
0.268313
0.268321
0.268472
0.268410
0.268306
0.268276
0.839700
0.839745
0.268313
0.268374
0.268447
0.839658
0.839635
0.268386
0.268369
0.839672
0.268422
0.839613
0.839739
0.268237
0.268400
0.268407
0.839639
0.268228
0.268386
0.268322
0.268334
0.839633
0.839716
0.268443
0.839605
0.268270
0.839639
0.268433
0.268447
0.839623
0.839639
0.268415
0.268331
0.268390
0.268336
0.268336
0.268410
0.838839
0.268334
0.268306
0.268407
0.268248
0.839745
0.839713
0.839632
0.330631
0.268305
0.839658
0.796806
0.268276
0.839721
0.839641
0.268447
0.839745
0.268334
0.268243
0.268390
0.268390
0.268407
0.268270
0.268345
0.278714
0.268415
0.839700
0.839639
0.839750
0.268248
0.268237
0.268407
0.268422
0.268402
0.268248
0.268359
0.839601
0.839745
0.268278
0.839664
0.278714
0.268415
0.839699
0.839657
0.839642
0.268248
0.268439
0.835935
0.839645
0.839709
0.268343
0.281793
0.839680
0.268422
0.839653
0.839745
0.839678
0.839678
0.268314
0.268270
0.268390
0.268402
0.268305
0.268313
0.268415
0.839735
0.838839
0.268407
0.839742
0.839680
0.268415
0.839639
0.839768
0.839635
0.839632
0.839709
0.839637
0.268343
0.268472
0.839632
0.839716
0.268359
0.268410
0.839639
0.268472
0.268407
0.268390
0.268415
0.839680
0.838286
0.268433
0.839640
0.268314
0.268407
0.839701
0.268321
0.268385
0.268426
0.268359
0.268385
0.268314
0.268415
0.268407
0.268407
0.268270
0.839710
0.268415
0.268255
0.268422
0.268369
0.268410
0.268305
0.839745
0.839692
0.838839
0.268410
0.629424
0.268343
0.268306
0.268407
0.839678
0.268270
0.519299
0.268319
0.268415
0.839751
0.839633
0.839606
0.839729
0.268374
0.839712
0.839695
0.839605
0.268270
0.268306
0.839639
0.839676
0.839645
0.839745
0.268334
0.268237
0.268243
0.268380
0.839641
0.839701
0.268338
0.268331
0.268305
0.839641
0.268400
0.268440
0.839639
0.839653
0.839654
0.268334
0.839742
0.268336
0.839739
0.268270
0.838286
0.839755
0.839743
0.839662
0.268415
0.268228
0.839701
0.268415
0.839645
0.839639
0.839713
0.268359
0.268314
0.268415
0.268359
0.839676
0.268400
0.268410
0.839605
0.268248
0.839639
0.839615
0.268384
0.268443
0.796806
0.839623
0.268415
0.268402
0.268305
0.839661
0.839745
0.268385
0.839623
0.839683
0.268410
0.839695
0.839701
0.268374
0.839614
0.839640
0.839745
0.839641
0.740741
0.268407
0.268410
0.839676
0.839639
0.268314
0.268321
0.268415
0.839713
0.268385
0.268407
0.268472
0.268336
0.839652
0.268384
0.839626
0.268359
0.839739
0.839675
0.268336
0.268334
0.268331
0.268440
0.839768
0.268237
0.839639
0.839592
0.839739
0.268306
0.268334
0.268359
0.839744
0.839682
0.839745
0.839612
0.839609
0.839692
0.268415
0.268331
0.268407
0.268319
0.839742
0.268400
0.268390
0.839639
0.838691
0.268248
0.839605
0.839723
0.268334
0.268288
0.268323
0.839742
0.268276
0.839752
0.268331
0.839637
0.839639
0.268415
0.268473
0.268374
0.268321
0.839641
0.268321
0.839685
0.839745
0.839616
0.268407
0.839639
0.839709
0.268466
0.839745
0.268359
0.839742
0.839745
0.268288
0.839626
0.268384
0.839684
0.839662
0.839639
0.268228
0.839674
0.839621
0.268305
0.268415
0.268415
0.268338
0.268270
0.839674
0.268323
0.839670
0.839710
0.839623
0.268384
0.839639
0.839733
0.268276
0.839690
0.268415
0.268359
0.286471
0.839613
0.268321
0.268473
0.268454
0.268384
0.839676
0.268415
0.268322
0.839632
0.268481
0.268319
0.839701
0.839700
0.268415
0.629424
0.839640
0.839643
0.268415
0.268400
0.268415
0.827896
0.268334
0.839745
0.268248
0.839737
0.268415
0.839685
0.839657
0.268410
0.839672
0.268410
0.268407
0.839672
0.839714
0.839699
0.268427
0.268407
0.839745
0.519299
0.268426
0.268447
0.839637
0.268415
0.839739
0.268400
0.839732
0.839755
0.268410
0.839744
0.268410
0.268407
0.268454
0.268422
0.268415
0.839734
0.839745
0.839647
0.839639
0.839638
0.268407
0.839704
0.839638
0.268443
0.268426
0.839632
0.268454
0.268427
0.839637
0.839613
0.268343
0.839760
0.268276
0.839679
0.330631
0.839745
0.268336
0.839617
0.839643
0.839721
0.268228
0.268276
0.839636
0.268415
0.268288
0.839596
0.839704
0.268331
0.268288
0.839683
0.839742
0.839613
0.839623
0.839662
0.278714
0.839636
0.268422
0.839637
0.268355
0.268410
0.839755
0.839645
0.838286
0.839693
0.268440
0.268270
0.268407
0.268440
0.839620
0.268433
0.268400
0.268472
0.839610
0.268288
0.839734
0.839713
0.268410
0.268407
0.839751
0.268384
0.839641
0.839694
0.268407
0.268407
0.268305
0.268288
0.268385
0.268305
0.839743
0.268410
0.268374
0.268415
0.268481
0.839621
0.839639
0.268331
0.839652
0.268393
0.839632
0.268407
0.268253
0.268385
0.839729
0.268306
0.839746
0.839632
0.268343
0.268410
0.268334
0.268270
0.268334
0.838839
0.268415
0.839695
0.268248
0.839637
0.839641
0.268270
0.268343
0.268374
0.268336
0.268415
0.839750
0.268288
0.839739
0.268288
0.268276
0.268343
0.286471
0.839709
0.839641
0.839730
0.268336
0.839635
0.268343
0.268255
0.839722
0.839690
0.268368
0.839614
0.839734
0.268228
0.839610
0.268243
0.839696
0.268336
0.268334
0.839594
0.268415
0.268473
0.839751
0.839729
0.839639
0.839646
0.839745
0.839732
0.268410
0.839641
0.839745
0.268244
0.268228
0.268415
0.839641
0.268385
0.839609
0.839639
0.838839
0.268440
0.268443
0.268443
0.268407
0.839745
0.839645
0.839642
0.839622
0.268447
0.839626
0.268257
0.839632
0.839755
0.839745
0.268402
0.835935
0.839638
0.839704
0.839617
0.268237
0.839688
0.268415
0.281793
0.839693
0.268331
0.268257
0.268334
0.268321
0.268415
0.268415
0.519299
0.268432
0.268472
0.278714
0.839743
0.839663
0.268270
0.268334
0.268433
0.268313
0.268415
0.839596
0.839745
0.839636
0.268443
0.839714
0.839621
0.839633
0.839745
0.268410
0.268359
0.268410
0.839718
0.268472
0.268244
0.268407
0.268336
0.839604
0.796806
0.839641
0.268422
0.281793
0.839632
0.839639
0.268259
0.268319
0.278714
0.839683
0.839621
0.839752
0.268314
0.268422
0.268343
0.268415
0.839709
0.268305
0.268384
0.268407
0.268228
0.268283
0.268313
0.268257
0.839716
0.268433
0.268440
0.268415
0.839641
0.839752
0.268415
0.839690
0.839601
0.268228
0.839713
0.268369
0.268343
0.839716
0.839639
0.839716
0.839596
0.839742
0.839646
0.281793
0.839747
0.268400
0.268391
0.268432
0.268410
0.268270
0.268415
0.268322
0.268280
0.839700
0.268288
0.839638
0.839709
0.268415
0.839638
0.268368
0.839733
0.839719
0.839745
0.268407
0.839699
0.268447
0.839709
0.839601
0.839641
0.268481
0.268314
0.268255
0.839619
0.839639
0.268400
0.268393
0.839713
0.268415
0.268410
0.839683
0.330631
0.839639
0.268334
0.268313
0.268269
0.839626
0.268255
0.268410
0.268443
0.268336
0.268407
0.839746
0.268255
0.268243
0.286471
0.268334
0.839617
0.268343
0.278714
0.268321
0.268280
0.268336
0.839734
0.268359
0.268228
0.268473
0.268359
0.839734
0.839671
0.839592
0.268313
0.268369
0.839699
0.268305
0.268240
0.268407
0.796806
0.268407
0.839639
0.278714
0.268427
0.268279
0.839645
0.268305
0.268257
0.268454
0.268334
0.839745
0.839745
0.839751
0.268384
0.268359
0.839734
0.268415
0.268415
0.839674
0.268410
0.839617
0.839640
0.268422
0.268410
0.268443
0.268481
0.838286
0.268305
0.278714
0.839699
0.268306
0.839751
0.839745
0.839610
0.268270
0.839637
0.268426
0.839614
0.268415
0.839709
0.268343
0.268270
0.268410
0.268415
0.268334
0.839641
0.839615
0.839763
0.268384
0.268384
0.268410
0.268334
0.268243
0.268237
0.268407
0.839685
0.839745
0.268466
0.268410
0.839641
0.268359
0.839699
0.838286
0.268355
0.839605
0.268410
0.839732
0.268422
0.569284
0.839641
0.839745
0.839601
0.268359
0.268279
0.690358
0.268270
0.268415
0.839638
0.268255
0.839639
0.839603
0.268305
0.839631
0.268270
0.278714
0.278714
0.839596
0.268334
0.268284
0.839638
0.839719
0.268269
0.268440
0.268306
0.281793
0.839622
0.839751
0.839626
0.839603
0.268374
0.268422
0.839664
0.268472
0.268415
0.839665
0.268402
0.268410
0.839639
0.268410
0.268237
0.839717
0.268407
0.268314
0.268319
0.839592
0.839745
0.839639
0.839641
0.268243
0.268402
0.839745
0.330631
0.268228
0.268415
0.268447
0.839638
0.839650
0.268472
0.839641
0.839613
0.268481
0.268255
0.268269
0.268402
0.268334
0.268407
0.268400
0.839675
0.268314
0.268359
0.839690
0.268402
0.839711
0.268410
0.278714
0.268447
0.839753
0.268270
0.268331
0.268407
0.839745
0.839676
0.268314
0.839716
0.839607
0.268375
0.268359
0.839615
0.268443
0.268410
0.268334
0.839630
0.268359
0.268228
0.839610
0.268443
0.268426
0.794809
0.268270
0.268422
0.268336
0.839743
0.839613
0.268427
0.268331
0.268334
0.268415
0.839596
0.268415
0.839746
0.268313
0.268336
0.268393
0.268321
0.839639
0.839696
0.268336
0.268343
0.839609
0.839638
0.839621
0.839751
0.839697
0.839604
0.268440
0.268415
0.839626
0.839617
0.839619
0.268433
0.268422
0.268336
0.519299
0.268481
0.268306
0.268283
0.839745
0.839733
0.839730
0.839641
0.839714
0.268407
0.839641
0.268321
0.268243
0.268426
0.839713
0.839621
0.268415
0.839639
0.839639
0.268334
0.839660
0.839738
0.268343
0.839652
0.839623
0.268237
0.268257
0.268276
0.839745
0.268400
0.839621
0.268269
0.268407
0.268410
0.268400
0.268385
0.839639
0.268241
0.281793
0.839704
0.839745
0.268255
0.838286
0.268336
0.839639
0.839633
0.268276
0.839639
0.268443
0.839641
0.268257
0.268292
0.268321
0.268237
0.268306
0.268459
0.839735
0.268410
0.839751
0.268368
0.839592
0.268279
0.839592
0.268334
0.839689
0.268410
0.839721
0.839697
0.839601
0.839742
0.268415
0.688751
0.839632
0.268447
0.839692
0.839641
0.268306
0.839745
0.839642
0.839700
0.268343
0.268334
0.839674
0.839716
0.268447
0.839745
0.268359
0.839642
0.839679
0.268433
0.268374
0.268374
0.268374
0.268458
0.765747
0.268410
0.839690
0.839713
0.268440
0.268426
0.268385
0.839641
0.268390
0.268385
0.268410
0.268368
0.268292
0.268306
0.268434
0.839743
0.268415
0.268433
0.839682
0.268343
0.268402
0.268407
0.839703
0.268270
0.839632
0.268306
0.839674
0.839711
0.268359
0.268410
0.268402
0.268243
0.268473
0.839763
0.839745
0.839745
0.268447
0.268415
0.839631
0.268305
0.839664
0.268336
0.268248
0.268415
0.268420
0.268334
0.268270
0.268415
0.268432
0.839745
0.839716
0.268400
0.839639
0.268402
0.839744
0.839598
0.268368
0.268410
0.268267
0.268384
0.268447
0.268255
0.268255
0.839745
0.268454
0.268279
0.268305
0.839596
0.268305
0.839685
0.839641
0.268400
0.268400
0.268248
0.268343
0.839690
0.839614
0.839745
0.835935
0.839623
0.839745
0.839720
0.268410
0.839709
0.268278
0.796806
0.839746
0.839621
0.839717
0.268402
0.839626
0.839745
0.839745
0.268255
0.629424
0.268433
0.839641
0.268407
0.839753
0.839658
0.839745
0.268407
0.839639
0.268410
0.268270
0.268276
0.281793
0.839640
0.268384
0.268270
0.839598
0.268443
0.268433
0.839717
0.268410
0.268415
0.839730
0.268407
0.839698
0.268407
0.839745
0.268321
0.839742
0.268270
0.839713
0.839709
0.268390
0.268343
0.330631
0.839658
0.268410
0.268359
0.839622
0.268255
0.268276
0.330631
0.839674
0.839609
0.268336
0.268257
0.268359
0.268384
0.839662
0.839664
0.268228
0.869951
0.268334
0.839745
0.839621
0.268402
0.268288
0.839745
0.268427
0.268248
0.268390
0.268237
0.839614
0.839639
0.839729
0.268374
0.839729
0.839620
0.839696
0.839639
0.268343
0.839657
0.268313
0.839699
0.268393
0.839745
0.268374
0.839738
0.268334
0.278714
0.839746
0.268447
0.268279
0.268306
0.839734
0.268270
0.268385
0.839676
0.839745
0.839717
0.839676
0.839725
0.268422
0.268422
0.268415
0.268369
0.839709
0.839751
0.268237
0.268415
0.268385
0.839630
0.268415
0.839709
0.268422
0.268410
0.268276
0.268359
0.268410
0.839717
0.268415
0.268306
0.570500
0.839696
0.839745
0.839745
0.839645
0.268288
0.839620
0.839683
0.268306
0.268440
0.268228
0.268388
0.268334
0.268331
0.839745
0.839680
0.268343
0.268410
0.268410
0.268243
0.268331
0.839746
0.839676
0.268407
0.268334
0.839752
0.268369
0.268481
0.268385
0.268374
0.268334
0.838691
0.268415
0.268331
0.839704
0.268270
0.765747
0.268279
0.268314
0.268343
0.268400
0.268410
0.839745
0.268336
0.268415
0.268279
0.839711
0.268415
0.268364
0.268359
0.268334
0.839724
0.268343
0.839632
0.839742
0.839670
0.839678
0.839678
0.268400
0.839729
0.268385
0.268319
0.839639
0.839640
0.268228
0.268276
0.839639
0.629424
0.268228
0.268248
0.268276
0.268374
0.839646
0.839698
0.268481
0.839674
0.839742
0.839745
0.268481
0.268359
0.268443
0.839626
0.268454
0.839641
0.839664
0.519299
0.268410
0.268402
0.268422
0.839638
0.839632
0.268415
0.833441
0.839699
0.839679
0.268407
0.839641
0.268415
0.268410
0.839632
0.569284
0.268385
0.839636
0.268334
0.268472
0.268306
0.268336
0.839768
0.268321
0.268270
0.268433
0.839713
0.839621
0.268306
0.839743
0.268410
0.839695
0.838839
0.268359
0.268400
0.268359
0.268400
0.839744
0.839735
0.268237
0.268257
0.268257
0.839646
0.839641
0.839699
0.268407
0.839745
0.839617
0.268313
0.268415
0.839639
0.268284
0.268283
0.839637
0.839683
0.268248
0.268321
0.839673
0.268314
0.839695
0.839641
0.268359
0.268336
0.839658
0.839727
0.268306
0.839682
0.268447
0.839674
0.839745
0.268269
0.268385
0.268400
0.268313
0.268407
0.268334
0.268415
0.268314
0.839732
0.268407
0.839601
0.839696
0.268385
0.839658
0.839745
0.268426
0.268410
0.268364
0.268447
0.839676
0.268433
0.268305
0.839658
0.839746
0.268410
0.268306
0.794809
0.839711
0.839674
0.839720
0.268410
0.839639
0.839677
0.839640
0.268334
0.268270
0.268390
0.839639
0.268248
0.268228
0.839663
0.839745
0.796806
0.839748
0.268374
0.268407
0.839680
0.268426
0.839637
0.839768
0.268314
0.328877
0.839742
0.849477
0.268415
0.839639
0.268313
0.839713
0.268390
0.839726
0.839630
0.839667
0.268270
0.268270
0.629424
0.839607
0.268305
0.839623
0.268447
0.839690
0.839739
0.839640
0.839699
0.268305
0.268359
0.268334
0.268343
0.268410
0.839755
0.839735
0.268440
0.839665
0.839747
0.839639
0.839695
0.839617
0.268440
0.268359
0.839745
0.839745
0.281793
0.839621
0.839640
0.839601
0.268228
0.839701
0.839699
0.268359
0.268270
0.268415
0.839739
0.268447
0.268306
0.268334
0.839685
0.268447
0.839632
0.268415
0.839709
0.268447
0.268472
0.268257
0.839718
0.839723
0.268279
0.268334
0.268336
0.278714
0.839635
0.268390
0.839745
0.268420
0.839689
0.268400
0.268472
0.268314
0.839639
0.839642
0.839738
0.268270
0.268415
0.839653
0.839612
0.268228
0.268410
0.839696
0.839713
0.839711
0.827796
0.839720
0.839742
0.839641
0.268359
0.268473
0.268374
0.268336
0.268319
0.268454
0.839745
0.839665
0.268270
0.839734
0.268433
0.839690
0.839745
0.268407
0.839693
0.268270
0.268390
0.268400
0.268270
0.268343
0.839690
0.839685
0.268334
0.268255
0.839683
0.839658
0.268334
0.268369
0.268321
0.839755
0.839722
0.268334
0.839646
0.839605
0.268288
0.268385
0.839624
0.839662
0.839700
0.839683
0.268331
0.268443
0.839743
0.268270
0.268385
0.839745
0.839641
0.268410
0.839720
0.839683
0.268257
0.839680
0.268343
0.268410
0.268286
0.268288
0.268415
0.268334
0.268283
0.268410
0.268359
0.839745
0.839745
0.268334
0.839755
0.839617
0.839641
0.838286
0.268415
0.839745
0.839607
0.839749
0.268400
0.839646
0.268270
0.268306
0.839619
0.268384
0.268305
0.839630
0.839615
0.839640
0.839697
0.268305
0.839745
0.839742
0.268410
0.839641
0.268336
0.839617
0.278714
0.268305
0.839742
0.268255
0.839673
0.839733
0.839687
0.268228
0.268334
0.839745
0.268359
0.839617
0.839645
0.268270
0.839711
0.839682
0.268237
0.839646
0.839730
0.268393
0.839639
0.839643
0.839680
0.268407
0.839745
0.839716
0.278714
0.839596
0.519299
0.268270
0.268422
0.268334
0.839617
0.839745
0.268369
0.839745
0.268228
0.268269
0.268415
0.268343
0.268255
0.839652
0.839645
0.268415
0.839703
0.839760
0.763835
0.268384
0.839671
0.839601
0.839682
0.839639
0.268276
0.268385
0.268384
0.268422
0.839639
0.839679
0.268321
0.268314
0.268334
0.268415
0.839643
0.839671
0.268343
0.839623
0.268385
0.330631
0.839646
0.839709
0.268374
0.839641
0.839641
0.268415
0.268415
0.839641
0.268407
0.330631
0.268473
0.839742
0.839601
0.839713
0.268427
0.839615
0.839709
0.839639
0.839700
0.268276
0.268270
0.268334
0.268359
0.268407
0.839751
0.268426
0.268385
0.268306
0.268415
0.839592
0.268334
0.268407
0.268410
0.268269
0.268270
0.839615
0.839621
0.268228
0.839639
0.268228
0.268390
0.839729
0.839736
0.839745
0.839645
0.268481
0.268400
0.519299
0.268385
0.268359
0.839626
0.839658
0.839638
0.268481
0.839649
0.268284
0.839669
0.839614
0.268415
0.839639
0.268228
0.268407
0.268432
0.268364
0.839742
0.268422
0.839700
0.839751
0.268237
0.839639
0.268338
0.839639
0.268385
0.839615
0.839639
0.268270
0.268410
0.839697
0.268415
0.839712
0.278714
0.268237
0.268415
0.268385
0.839598
0.839658
0.268473
0.268359
0.268276
0.268270
0.268313
0.839605
0.268270
0.839726
0.839639
0.268305
0.839732
0.268343
0.839745
0.268369
0.839692
0.268410
0.839641
0.839641
0.268334
0.268276
0.839653
0.268443
0.268255
0.839733
0.268407
0.519299
0.839742
0.839676
0.839639
0.268432
0.268400
0.839666
0.268306
0.519299
0.839721
0.268407
0.839639
0.839665
0.839709
0.268407
0.839592
0.839747
0.268440
0.268228
0.839601
0.839729
0.268343
0.268433
0.268319
0.839745
0.839682
0.839745
0.271520
0.268305
0.268426
0.268384
0.268390
0.268454
0.839699
0.839639
0.839639
0.794809
0.268473
0.839680
0.839652
0.839641
0.839718
0.835935
0.839745
0.268359
0.839676
0.835935
0.839663
0.268334
0.273338
0.839653
0.268410
0.268415
0.268415
0.839752
0.839621
0.839713
0.268407
0.268410
0.268257
0.268270
0.268314
0.268385
0.839699
0.268336
0.839616
0.839683
0.330631
0.268385
0.268359
0.839763
0.268415
0.268270
0.268279
0.268336
0.268338
0.268257
0.839664
0.268400
0.839734
0.268385
0.839756
0.839713
0.268237
0.838691
0.838691
0.839763
0.268407
0.839753
0.268360
0.268385
0.268306
0.268313
0.268237
0.268343
0.268288
0.268391
0.268276
0.268343
0.839754
0.268243
0.268276
0.839613
0.268415
0.268410
0.839617
0.839732
0.268415
0.268248
0.839747
0.839746
0.839678
0.839621
0.839695
0.268400
0.839755
0.268415
0.839639
0.839750
0.268305
0.268447
0.839748
0.268228
0.268415
0.268334
0.839639
0.839610
0.406227
0.268415
0.268433
0.839643
0.268472
0.839739
0.839598
0.268447
0.839621
0.839670
0.839652
0.839693
0.839745
0.839750
0.268288
0.268374
0.268270
0.268276
0.268447
0.268433
0.268345
0.268410
0.268402
0.268257
0.839646
0.839605
0.281793
0.268270
0.839641
0.839643
0.268244
0.268410
0.268374
0.268288
0.268384
0.839605
0.268410
0.268369
0.268270
0.268359
0.268432
0.839612
0.268228
0.874584
0.839713
0.839745
0.281793
0.268334
0.839745
0.268257
0.839641
0.268359
0.839727
0.268228
0.268359
0.268276
0.839735
0.268338
0.268279
0.268374
0.268400
0.268270
0.268270
0.268359
0.796806
0.839713
0.268427
0.839639
0.268321
0.268415
0.268426
0.268359
0.839623
0.839614
0.268390
0.839688
0.268374
0.839620
0.268415
0.268390
0.268359
0.268319
0.839638
0.839745
0.268415
0.839592
0.268334
0.268407
0.839716
0.839641
0.268257
0.839641
0.839605
0.268334
0.839632
0.268255
0.839607
0.839638
0.268288
0.839745
0.268415
0.268443
0.839736
0.268400
0.268255
0.268276
0.839745
0.268319
0.268305
0.839613
0.268410
0.839665
0.839689
0.852440
0.268237
0.268334
0.268321
0.268288
0.839652
0.839639
0.839601
0.268334
0.839745
0.839706
0.268374
0.839639
0.839752
0.268313
0.268422
0.839638
0.268447
0.839742
0.839641
0.839594
0.839614
0.839639
0.268426
0.839639
0.839747
0.839670
0.268255
0.839709
0.519299
0.839603
0.268269
0.268270
0.839745
0.268386
0.268276
0.268243
0.268447
0.268473
0.839667
0.268331
0.839623
0.839745
0.839620
0.268270
0.839747
0.839639
0.839639
0.839745
0.268334
0.268243
0.268410
0.268270
0.268313
0.268374
0.268432
0.268410
0.268410
0.268228
0.268257
0.839746
0.268255
0.268334
0.268410
0.839748
0.268270
0.268334
0.268410
0.839639
0.268472
0.268407
0.839646
0.268472
0.268415
0.839639
0.839735
0.268420
0.268228
0.796806
0.839671
0.268334
0.268407
0.268288
0.839652
0.268402
0.268313
0.839610
0.268472
0.268359
0.839639
0.794809
0.839753
0.268415
0.839639
0.796806
0.839745
0.839641
0.839700
0.268407
0.839683
0.839639
0.839622
0.839662
0.839750
0.839745
0.268334
0.839755
0.839641
0.268410
0.268369
0.281793
0.839623
0.268368
0.268402
0.268334
0.839596
0.765747
0.268472
0.268280
0.839609
0.839641
0.268348
0.268321
0.839613
0.839739
0.839750
0.839636
0.268270
0.268306
0.268270
0.839641
0.268255
0.839723
0.839750
0.268415
0.839692
0.839601
0.268338
0.839745
0.268314
0.629424
0.268407
0.839641
0.839639
0.796806
0.268410
0.268402
0.839650
0.268374
0.268248
0.839620
0.268432
0.268447
0.839755
0.268415
0.839747
0.268244
0.839641
0.839662
0.268415
0.268426
0.839745
0.839642
0.268306
0.839676
0.839683
0.268440
0.839709
0.839734
0.268248
0.839632
0.268257
0.268433
0.268415
0.839745
0.839667
0.268288
0.839603
0.839699
0.268305
0.839733
0.268410
0.268433
0.268255
0.839650
0.268288
0.839755
0.268410
0.268321
0.839755
0.268255
0.268384
0.839642
0.839672
0.839735
0.839709
0.839729
0.268322
0.268440
0.839680
0.839723
0.268257
0.268228
0.268359
0.836325
0.268415
0.839621
0.839747
0.268385
0.268334
0.268334
0.268313
0.569284
0.268334
0.268270
0.268305
0.268257
0.839639
0.268336
0.838839
0.839721
0.839613
0.268407
0.839729
0.268374
0.839713
0.268237
0.268334
0.839749
0.839723
0.838286
0.268305
0.839617
0.839641
0.268270
0.839597
0.839714
0.839700
0.268270
0.839751
0.839623
0.268433
0.268280
0.268331
0.839641
0.839662
0.839752
0.839745
0.268415
0.268473
0.839716
0.839739
0.268407
0.839679
0.839640
0.839615
0.268237
0.268420
0.839639
0.268410
0.839638
0.839614
0.268237
0.839675
0.839640
0.839729
0.268228
0.839639
0.268454
0.268359
0.839745
0.268415
0.839747
0.839646
0.839641
0.839737
0.330631
0.765747
0.268407
0.268243
0.268443
0.268276
0.268410
0.839742
0.839751
0.839706
0.268407
0.268334
0.268369
0.268390
0.839746
0.765747
0.838839
0.839639
0.268410
0.268454
0.839650
0.839745
0.268288
0.268343
0.765747
0.268306
0.268248
0.268384
0.839639
0.268276
0.839713
0.839677
0.268410
0.268410
0.839643
0.268319
0.268410
0.268407
0.268314
0.839665
0.268415
0.268314
0.839601
0.268276
0.268422
0.268454
0.268276
0.839746
0.839641
0.268422
0.268415
0.268390
0.839745
0.268410
0.268415
0.839745
0.268338
0.268255
0.839595
0.268283
0.268415
0.839745
0.839699
0.268433
0.268368
0.839641
0.839680
0.268257
0.268410
0.268359
0.268276
0.278714
0.268400
0.268415
0.839640
0.268402
0.268426
0.278714
0.268305
0.839670
0.268336
0.839712
0.268276
0.839749
0.268270
0.268270
0.268385
0.268407
0.839742
0.839750
0.268407
0.268314
0.839675
0.268443
0.839617
0.268305
0.839639
0.268410
0.268400
0.268228
0.268390
0.268305
0.839614
0.839696
0.839745
0.268481
0.839643
0.839711
0.268410
0.839748
0.268321
0.839615
0.268443
0.268319
0.268374
0.268343
0.835935
0.268369
0.268334
0.268319
0.268305
0.839679
0.839688
0.268369
0.839745
0.839680
0.839699
0.268379
0.839641
0.839739
0.839742
0.839747
0.268270
0.268400
0.839725
0.839734
0.268270
0.268276
0.839604
0.839723
0.839680
0.268407
0.839753
0.839615
0.268422
0.268422
0.839592
0.839605
0.839678
0.839635
0.839635
0.268400
0.839639
0.286471
0.268433
0.839639
0.839745
0.839615
0.839603
0.839639
0.268255
0.839641
0.268336
0.268323
0.268288
0.268410
0.268415
0.839658
0.839700
0.839595
0.839641
0.839632
0.268243
0.268472
0.268313
0.268415
0.375674
0.839620
0.268288
0.268410
0.839745
0.268338
0.839613
0.268415
0.839745
0.839638
0.268270
0.268374
0.839745
0.268415
0.839643
0.839690
0.839701
0.839642
0.268415
0.268432
0.839639
0.268407
0.268248
0.268321
0.268433
0.839672
0.268407
0.268334
0.839633
0.839646
0.268306
0.268447
0.839721
0.268343
0.268407
0.838286
0.268374
0.839641
0.839704
0.268228
0.268472
0.839742
0.268288
0.839745
0.268415
0.704616
0.268255
0.268338
0.268407
0.268306
0.268248
0.839641
0.268407
0.268454
0.839615
0.268472
0.839641
0.839639
0.268407
0.268410
0.839745
0.839623
0.839601
0.268410
0.839642
0.268384
0.839710
0.268243
0.839722
0.839623
0.268270
0.268314
0.268331
0.839652
0.839641
0.268319
0.268334
0.839638
0.268410
0.268257
0.268276
0.839643
0.839680
0.268400
0.839745
0.268472
0.839614
0.839667
0.839682
0.268314
0.839639
0.839716
0.839606
0.268369
0.839695
0.268343
0.839692
0.268368
0.839653
0.268415
0.839641
0.268255
0.839683
0.838839
0.268390
0.268319
0.839722
0.268473
0.839613
0.839653
0.268270
0.839736
0.268334
0.268410
0.268473
0.839674
0.268410
0.268334
0.268321
0.268319
0.839739
0.268400
0.839639
0.268407
0.839623
0.268415
0.268410
0.268440
0.839641
0.268410
0.268410
0.839642
0.268306
0.268415
0.268415
0.268415
0.268447
0.839671
0.839680
0.268319
0.839734
0.268433
0.839747
0.839689
0.268402
0.839745
0.268269
0.838839
0.268374
0.268447
0.268415
0.268447
0.839713
0.268407
0.268415
0.839745
0.268410
0.839657
0.839638
0.268410
0.268415
0.268336
0.839639
0.268415
0.268314
0.839720
0.839699
0.268410
0.268400
0.268306
0.629424
0.839709
0.268385
0.839615
0.268257
0.268255
0.839624
0.268384
0.839745
0.268374
0.268415
0.839736
0.839615
0.268415
0.268385
0.839623
0.839614
0.268237
0.268316
0.839745
0.268410
0.839595
0.839704
0.268390
0.268415
0.268374
0.839747
0.839697
0.821885
0.268407
0.839665
0.838691
0.839701
0.268415
0.268473
0.268447
0.268334
0.268228
0.268410
0.268359
0.268374
0.839683
0.268338
0.268359
0.268334
0.268334
0.268369
0.268410
0.839709
0.268270
0.268270
0.839676
0.268390
0.268473
0.839639
0.839632
0.268473
0.268410
0.268270
0.268257
0.268385
0.839739
0.839697
0.278714
0.839732
0.268415
0.794809
0.268276
0.268241
0.268305
0.839639
0.268422
0.839607
0.839670
0.839745
0.839709
0.839729
0.796806
0.268270
0.629424
0.268314
0.839641
0.839745
0.268385
0.268359
0.839617
0.268407
0.268248
0.839679
0.839713
0.330631
0.796806
0.268290
0.268400
0.839645
0.839601
0.268334
0.268422
0.268334
0.268459
0.268257
0.839639
0.268270
0.839743
0.839641
0.839672
0.268355
0.268415
0.839700
0.268321
0.838691
0.839682
0.839756
0.268415
0.839638
0.268426
0.839672
0.839718
0.268472
0.839743
0.839607
0.281793
0.268270
0.268472
0.839641
0.839641
0.839632
0.268447
0.839688
0.268422
0.268472
0.268319
0.839733
0.839614
0.268288
0.839726
0.268270
0.839637
0.268410
0.839615
0.839632
0.839662
0.839641
0.268407
0.268415
0.839716
0.839633
0.268270
0.268400
0.839727
0.268384
0.268228
0.268410
0.839745
0.268415
0.839716
0.268257
0.839730
0.268415
0.268228
0.268283
0.268314
0.268415
0.839745
0.839677
0.839622
0.839700
0.839688
0.839738
0.839680
0.268410
0.839722
0.268410
0.839637
0.839596
0.839658
0.268305
0.268415
0.839679
0.330631
0.268385
0.839622
0.268270
0.268407
0.268426
0.268374
0.268283
0.268319
0.839713
0.839716
0.268410
0.268415
0.268248
0.839614
0.839601
0.382094
0.839639
0.268321
0.268410
0.268257
0.839670
0.839676
0.839683
0.268454
0.268415
0.839704
0.268270
0.839752
0.839745
0.268440
0.268336
0.268321
0.268255
0.839639
0.839637
0.268415
0.268286
0.839745
0.839639
0.268473
0.268434
0.268321
0.839696
0.839745
0.268374
0.268288
0.268410
0.839721
0.839639
0.268321
0.268422
0.268369
0.268331
0.268402
0.268443
0.268415
0.268384
0.839713
0.268313
0.839641
0.268390
0.268334
0.839745
0.839639
0.839698
0.268305
0.519299
0.268334
0.839664
0.268343
0.268472
0.839745
0.281793
0.839632
0.839704
0.268407
0.268288
0.839755
0.268415
0.268228
0.268331
0.268440
0.839745
0.839699
0.839704
0.268270
0.268472
0.839632
0.839621
0.268237
0.268336
0.268410
0.268369
0.839639
0.839595
0.268334
0.839733
0.268359
0.281793
0.268270
0.268257
0.268253
0.839631
0.839639
0.268415
0.839605
0.839639
0.268393
0.839666
0.839748
0.268387
0.839745
0.268410
0.839690
0.839693
0.839638
0.839617
0.268407
0.268369
0.268415
0.268228
0.268443
0.839713
0.839739
0.268248
0.268447
0.839716
0.268415
0.839716
0.268433
0.268447
0.268237
0.839639
0.839639
0.839639
0.839698
0.839712
0.839730
0.839641
0.839652
0.268422
0.839642
0.268257
0.268305
0.765747
0.839621
0.268415
0.839751
0.839751
0.839751
0.839638
0.268440
0.268433
0.839598
0.839701
0.268270
0.839601
0.839658
0.268407
0.839745
0.268270
0.268338
0.268384
0.268402
0.268472
0.268288
0.839695
0.839720
0.268415
0.268443
0.839742
0.268321
0.268288
0.839631
0.268334
0.268343
0.268306
0.839745
0.268314
0.268248
0.268334
0.268270
0.839743
0.268306
0.839688
0.268384
0.268276
0.839701
0.839709
0.268359
0.268359
0.268443
0.268410
0.268288
0.268447
0.839713
0.268407
0.839613
0.268433
0.839721
0.839639
0.268321
0.839698
0.268292
0.268270
0.268384
0.268402
0.839709
0.268369
0.839750
0.839641
0.839667
0.268392
0.839617
0.268407
0.839685
0.839641
0.268305
0.268410
0.268433
0.839754
0.839622
0.268400
0.839709
0.839745
0.268257
0.839641
0.839614
0.268415
0.839694
0.268331
0.268415
0.268276
0.268334
0.839745
0.268228
0.519299
0.268410
0.268248
0.268270
0.268407
0.268228
0.839639
0.839745
0.268288
0.839745
0.268415
0.268415
0.268314
0.268415
0.839631
0.268276
0.268331
0.839674
0.268400
0.839683
0.839733
0.839637
0.268237
0.268334
0.268472
0.268410
0.268440
0.268331
0.839706
0.268427
0.268359
0.268407
0.839730
0.839745
0.839734
0.268385
0.839701
0.839699
0.268359
0.839643
0.839639
0.839747
0.268443
0.330631
0.839717
0.839641
0.839700
0.268410
0.268407
0.268402
0.268473
0.839608
0.839716
0.839683
0.268248
0.268415
0.268336
0.839697
0.268402
0.839745
0.839745
0.839745
0.839605
0.839735
0.268359
0.839639
0.839635
0.268253
0.268415
0.839620
0.268473
0.268313
0.268314
0.268305
0.839632
0.268407
0.268385
0.268228
0.839626
0.839745
0.268270
0.268472
0.268407
0.268415
0.839665
0.839657
0.268410
0.268228
0.268270
0.268270
0.839733
0.839670
0.839657
0.268439
0.268400
0.839715
0.839745
0.839745
0.839677
0.839752
0.268390
0.838691
0.839641
0.268415
0.839639
0.839698
0.839622
0.629424
0.839745
0.268334
0.268385
0.268237
0.268270
0.839745
0.268408
0.839676
0.268433
0.839742
0.268447
0.839646
0.268270
0.839709
0.839639
0.268270
0.839601
0.268270
0.839709
0.839623
0.839647
0.268400
0.268447
0.839639
0.268314
0.839637
0.839700
0.268276
0.268313
0.268407
0.268415
0.268410
0.278714
0.268288
0.839745
0.268257
0.330631
0.839742
0.839614
0.839642
0.268440
0.839641
0.268336
0.268314
0.839729
0.268415
0.268248
0.835935
0.839725
0.268410
0.268270
0.268410
0.268402
0.839755
0.268473
0.268415
0.268237
0.839690
0.839638
0.839743
0.839641
0.268359
0.268321
0.268334
0.839641
0.839713
0.268338
0.268248
0.839638
0.268415
0.839713
0.839742
0.268270
0.839747
0.839682
0.268237
0.839745
0.268388
0.839696
0.839756
0.268331
0.839743
0.839683
0.268288
0.839592
0.268276
0.839677
0.268321
0.268248
0.268248
0.839745
0.268410
0.268369
0.839710
0.839605
0.839760
0.268415
0.268410
0.268407
0.839638
0.839670
0.839745
0.839745
0.839748
0.268270
0.268314
0.839690
0.268359
0.839637
0.839614
0.268415
0.268390
0.839642
0.839632
0.839640
0.268415
0.268336
0.268228
0.268415
0.268388
0.765747
0.268314
0.268228
0.268447
0.268368
0.268415
0.839753
0.839623
0.839709
0.839745
0.268255
0.839685
0.268231
0.268286
0.839639
0.839623
0.268343
0.839676
0.839716
0.268426
0.838286
0.268440
0.268415
0.268255
0.268415
0.839641
0.268410
0.268255
0.268407
0.839640
0.268305
0.839700
0.268305
0.839692
0.268313
0.839672
0.839643
0.839592
0.839745
0.839722
0.268400
0.839639
0.839662
0.839742
0.268306
0.268426
0.839672
0.268410
0.268343
0.382094
0.268410
0.268270
0.839751
0.839641
0.839682
0.268243
0.268314
0.839716
0.839664
0.268415
0.839745
0.839755
0.268269
0.839713
0.839752
0.839697
0.839654
0.268410
0.839735
0.268334
0.268415
0.839709
0.839652
0.839617
0.268415
0.268359
0.268390
0.839734
0.268305
0.268334
0.839683
0.839605
0.268336
0.839622
0.268415
0.281793
0.268447
0.268321
0.839638
0.268447
0.268228
0.839645
0.839639
0.268415
0.268407
0.796806
0.839641
0.839605
0.268407
0.268410
0.839734
0.268321
0.268334
0.839642
0.268415
0.839614
0.839696
0.839706
0.268359
0.268305
0.839746
0.268237
0.839727
0.268270
0.839614
0.268472
0.839641
0.839636
0.839649
0.268270
0.268415
0.839650
0.839639
0.839640
0.839607
0.268374
0.839639
0.268384
0.268443
0.268336
0.268276
0.268270
0.278714
0.268415
0.268334
0.839639
0.839724
0.268314
0.268410
0.839736
0.268359
0.268270
0.839649
0.278714
0.268407
0.839734
0.268410
0.839678
0.268410
0.839621
0.268407
0.839643
0.839730
0.268374
0.839701
0.839642
0.268270
0.839742
0.839745
0.268400
0.268427
0.268407
0.268433
0.839716
0.839664
0.268314
0.268447
0.268385
0.839706
0.268243
0.268228
0.268255
0.268359
0.268385
0.839639
0.268415
0.268270
0.268359
0.839743
0.839683
0.839701
0.268385
0.268443
0.268331
0.839639
0.268306
0.268410
0.839646
0.268288
0.268276
0.839641
0.268374
0.268243
0.268440
0.839641
0.268422
0.839745
0.519299
0.839730
0.839661
0.268270
0.839639
0.268407
0.268472
0.268288
0.268415
0.268410
0.268391
0.839704
0.268316
0.839763
0.839692
0.839639
0.268343
0.839755
0.268348
0.268306
0.268472
0.268305
0.268400
0.268334
0.839639
0.268415
0.839639
0.268288
0.268410
0.839639
0.268306
0.268390
0.268313
0.839760
0.839662
0.268407
0.268237
0.268415
0.839717
0.839636
0.268410
0.268369
0.839641
0.839722
0.268407
0.839639
0.839716
0.839713
0.838286
0.268334
0.268368
0.268336
0.839676
0.629424
0.268257
0.268255
0.268400
0.268306
0.268270
0.281793
0.839676
0.796806
0.839652
0.839618
0.268321
0.268447
0.268288
0.839676
0.268447
0.268410
0.839713
0.268228
0.839615
0.268410
0.839641
0.839652
0.839732
0.268459
0.839745
0.268331
0.268426
0.839742
0.268415
0.839635
0.268400
0.268481
0.268415
0.268473
0.268390
0.268305
0.839632
0.839699
0.839732
0.839658
0.268407
0.268472
0.268410
0.839632
0.839641
0.268422
0.281793
0.839601
0.268359
0.839745
0.268257
0.268334
0.268343
0.839745
0.268338
0.268270
0.839735
0.839714
0.268276
0.839639
0.839695
0.839682
0.268407
0.839610
0.268459
0.268255
0.268255
0.839639
0.268410
0.281793
0.268288
0.839624
0.268255
0.268390
0.268343
0.839624
0.839641
0.268248
0.268270
0.268415
0.839613
0.268334
0.268314
0.839739
0.765747
0.268454
0.268385
0.839598
0.268270
0.268390
0.268422
0.839633
0.268390
0.268407
0.268269
0.839641
0.839622
0.268338
0.268473
0.268433
0.268374
0.839621
0.519299
0.839635
0.268270
0.268443
0.268407
0.268400
0.268415
0.268390
0.839683
0.839626
0.268343
0.839641
0.268410
0.268319
0.839742
0.268410
0.839613
0.839619
0.268410
0.268415
0.839639
0.268255
0.268255
0.268410
0.839729
0.268270
0.268415
0.839697
0.268447
0.839601
0.268410
0.330631
0.382094
0.268415
0.268443
0.268334
0.268384
0.268402
0.268343
0.839639
0.268359
0.839745
0.268336
0.827140
0.268410
0.268270
0.268447
0.268270
0.839621
0.268314
0.839745
0.268237
0.839768
0.268415
0.268369
0.268433
0.268276
0.268313
0.278714
0.839745
0.268415
0.268228
0.268321
0.268343
0.839745
0.268283
0.839675
0.839607
0.839690
0.268368
0.268426
0.268400
0.839739
0.268407
0.268410
0.268407
0.839736
0.268472
0.268415
0.268402
0.268427
0.839641
0.268390
0.268385
0.268288
0.268407
0.839745
0.839623
0.839734
0.839739
0.268237
0.268454
0.268402
0.268305
0.839743
0.839745
0.839653
0.839683
0.839639
0.268334
0.268368
0.839641
0.268415
0.839615
0.268319
0.839641
0.268410
0.839592
0.839610
0.839639
0.839746
0.268321
0.268473
0.268415
0.268427
0.268427
0.839745
0.268257
0.839674
0.839751
0.268427
0.839749
0.268410
0.268270
0.839605
0.268407
0.268334
0.839755
0.839690
0.839733
0.839608
0.268385
0.839639
0.839639
0.839683
0.268422
0.268473
0.268359
0.839752
0.839614
0.268276
0.268415
0.268374
0.268280
0.268385
0.839650
0.268305
0.268270
0.268305
0.796806
0.268481
0.839639
0.839639
0.268472
0.839639
0.268410
0.268270
0.268269
0.268433
0.268369
0.839598
0.839696
0.839709
0.839742
0.268415
0.268415
0.268481
0.268334
0.839649
0.268400
0.268410
0.839641
0.839605
0.839733
0.268334
0.839601
0.268390
0.268338
0.839682
0.268237
0.268426
0.800628
0.268410
0.796806
0.839688
0.839639
0.839639
0.839706
0.839733
0.268257
0.268385
0.268228
0.839672
0.839692
0.839639
0.268228
0.835935
0.839690
0.839639
0.839617
0.839751
0.268359
0.839639
0.268400
0.839641
0.839717
0.839681
0.268390
0.839641
0.268228
0.268443
0.629424
0.268459
0.839643
0.268305
0.268402
0.268283
0.268415
0.839601
0.268410
0.268400
0.268407
0.839745
0.268415
0.268407
0.268410
0.839663
0.839663
0.268427
0.839675
0.268276
0.839745
0.268415
0.839643
0.839619
0.839718
0.839621
0.268390
0.268422
0.839639
0.839639
0.839614
0.839745
0.839607
0.268443
0.268374
0.268364
0.281793
0.268454
0.839726
0.839615
0.268336
0.839706
0.839683
0.268270
0.268410
0.268338
0.839699
0.268415
0.268288
0.268288
0.839700
0.268410
0.839745
0.268237
0.839736
0.839649
0.268410
0.796806
0.268306
0.839614
0.839747
0.839620
0.268279
0.839745
0.839748
0.839746
0.839752
0.268269
0.839639
0.839745
0.268334
0.268447
0.268427
0.839745
0.268410
0.268343
0.268305
0.839752
0.839697
0.839742
0.839726
0.268334
0.839699
0.839749
0.268481
0.839641
0.268257
0.268270
0.839692
0.839615
0.839755
0.268314
0.268321
0.839617
0.268443
0.268472
0.268279
0.268278
0.839646
0.839637
0.839725
0.839719
0.268426
0.268270
0.839745
0.268426
0.268426
0.268334
0.268305
0.268481
0.839673
0.839699
0.839645
0.268270
0.839683
0.839639
0.839695
0.839667
0.268415
0.268426
0.839745
0.268400
0.268269
0.268255
0.839727
0.268384
0.268400
0.268422
0.268314
0.839632
0.281793
0.268400
0.839626
0.268270
0.839751
0.268305
0.839713
0.268266
0.268248
0.268407
0.839746
0.839713
0.268283
0.268288
0.839646
0.839754
0.268237
0.268440
0.268385
0.268410
0.839643
0.268369
0.839714
0.268343
0.268276
0.268407
0.839745
0.839641
0.839652
0.839684
0.268334
0.268447
0.268390
0.839699
0.278714
0.839745
0.268447
0.268426
0.519299
0.268305
0.839742
0.839640
0.839745
0.839745
0.268369
0.839639
0.839750
0.268410
0.268410
0.268237
0.268334
0.839631
0.839733
0.268243
0.268343
0.281793
0.839712
0.839701
0.268440
0.268286
0.268415
0.268270
0.839662
0.268334
0.268410
0.268400
0.268415
0.839742
0.839755
0.268359
0.839735
0.839614
0.268288
0.839742
0.268447
0.268400
0.839723
0.839621
0.839641
0.268270
0.839641
0.839701
0.268305
0.268334
0.268385
0.268473
0.268313
0.268433
0.839647
0.839622
0.268314
0.268319
0.268433
0.839714
0.268368
0.839662
0.268407
0.268410
0.268369
0.268400
0.268288
0.268454
0.847807
0.268305
0.268410
0.268288
0.268459
0.278714
0.839604
0.268269
0.268248
0.839745
0.268466
0.839745
0.268415
0.268359
0.268443
0.268334
0.268422
0.839727
0.268415
0.268374
0.839643
0.268433
0.839596
0.839745
0.268359
0.268343
0.839701
0.268415
0.268407
0.268426
0.268400
0.268400
0.839685
0.268338
0.839623
0.839674
0.839652
0.827896
0.268440
0.839739
0.839709
0.839745
0.268306
0.839638
0.268415
0.839639
0.268306
0.268422
0.268427
0.268345
0.268415
0.268255
0.839745
0.839658
0.839711
0.268422
0.268334
0.268410
0.268447
0.268415
0.268415
0.839639
0.268426
0.839745
0.268374
0.268415
0.268443
0.268314
0.839642
0.839639
0.268305
0.839645
0.839734
0.839643
0.839742
0.268420
0.839680
0.519299
0.839679
0.839724
0.268334
0.839684
0.839664
0.268472
0.268473
0.839685
0.839653
0.268432
0.268481
0.268237
0.839639
0.268390
0.268415
0.268415
0.268336
0.839729
0.268433
0.839618
0.839662
0.839736
0.839646
0.268359
0.268228
0.839649
0.839643
0.268415
0.839641
0.268440
0.839621
0.839632
0.268369
0.268270
0.268313
0.268415
0.839637
0.268270
0.268306
0.839637
0.839663
0.839682
0.268283
0.268427
0.268336
0.268433
0.268228
0.268255
0.268415
0.268313
0.839745
0.839662
0.839719
0.268415
0.839692
0.839641
0.839662
0.268407
0.268334
0.268306
0.268385
0.839672
0.839633
0.268276
0.268374
0.268415
0.839641
0.268472
0.268415
0.268270
0.268288
0.268473
0.268228
0.839592
0.268364
0.268359
0.839622
0.268270
0.839745
0.268384
0.839605
0.268407
0.268410
0.839640
0.839745
0.268336
0.268415
0.268433
0.839689
0.839640
0.268270
0.839745
0.268426
0.839739
0.839639
0.268375
0.839604
0.268415
0.839745
0.839621
0.268237
0.268433
0.268407
0.839746
0.281793
0.839745
0.839615
0.839621
0.268270
0.268407
0.268481
0.839639
0.268359
0.268314
0.268359
0.268257
0.839657
0.268443
0.268243
0.835935
0.839738
0.839617
0.839639
0.268306
0.268407
0.839641
0.268447
0.268369
0.839663
0.796672
0.839664
0.839755
0.839732
0.268257
0.268237
0.839724
0.268334
0.839718
0.839709
0.268415
0.268410
0.268443
0.268415
0.839639
0.268306
0.838839
0.268368
0.839695
0.839743
0.268410
0.839662
0.839704
0.839674
0.268314
0.268279
0.268407
0.839713
0.268433
0.268410
0.839676
0.268422
0.268443
0.268407
0.838691
0.839675
0.839601
0.839754
0.268374
0.268440
0.838691
0.268410
0.839745
0.268410
0.268415
0.268415
0.268368
0.839750
0.839720
0.268415
0.839737
0.839674
0.268472
0.268427
0.839690
0.839735
0.268443
0.268415
0.268270
0.839725
0.268407
0.268410
0.268402
0.268422
0.839610
0.268374
0.268422
0.839610
0.839639
0.268422
0.268336
0.268270
0.839745
0.839743
0.268270
0.268314
0.268443
0.839620
0.268283
0.839716
0.839745
0.839621
0.839631
0.268481
0.268343
0.268410
0.268420
0.268305
0.268305
0.268415
0.839701
0.268319
0.268343
0.268359
0.839607
0.839751
0.839605
0.839745
0.268276
0.839623
0.268270
0.839639
0.268359
0.268334
0.268385
0.839688
0.839631
0.268414
0.268415
0.268481
0.268257
0.268415
0.839614
0.519299
0.268279
0.268433
0.268400
0.268407
0.268313
0.839641
0.839697
0.268415
0.268390
0.268432
0.839639
0.268481
0.268334
0.839697
0.268422
0.268279
0.839747
0.268422
0.839639
0.839638
0.268374
0.839641
0.839745
0.268410
0.268415
0.268410
0.839643
0.268270
0.268393
0.268237
0.268415
0.268407
0.268237
0.839745
0.268264
0.814370
0.839739
0.839622
0.839639
0.268306
0.268270
0.839658
0.839753
0.839678
0.839613
0.268427
0.839606
0.839632
0.839614
0.839594
0.839745
0.268443
0.839639
0.839639
0.268276
0.839742
0.268270
0.839663
0.268305
0.278714
0.839626
0.268228
0.268269
0.839709
0.839745
0.268473
0.268400
0.268415
0.839716
0.268385
0.268306
0.839736
0.268415
0.839639
0.268385
0.268407
0.839745
0.839745
0.268384
0.268481
0.268319
0.268410
0.839481
0.268481
0.839632
0.839734
0.268305
0.839733
0.268426
0.268407
0.268439
0.839614
0.839745
0.268276
0.839639
0.839641
0.839745
0.268313
0.268359
0.839615
0.839665
0.839752
0.268257
0.268359
0.268334
0.268336
0.268334
0.268270
0.839736
0.268410
0.268369
0.629424
0.839745
0.268402
0.268402
0.268410
0.839713
0.268240
0.839639
0.268415
0.268306
0.835935
0.268359
0.839621
0.268472
0.268400
0.268426
0.278714
0.330631
