0.127709
0.790303
0.133610
0.127723
0.791050
0.127838
0.275021
0.127709
0.790416
0.127709
0.138866
0.790421
0.790416
0.127805
0.275049
0.275005
0.790258
0.127735
0.127838
0.127805
0.127744
0.127709
0.138755
0.128315
0.127816
0.127856
0.790416
0.127735
0.790340
0.127806
0.138866
0.127735
0.789645
0.810450
0.191086
0.127751
0.138893
0.127838
0.127755
0.138876
0.134461
0.274990
0.790285
0.790416
0.138811
0.791050
0.209011
0.128481
0.127806
0.138876
0.138818
0.128315
0.127709
0.275005
0.127806
0.127750
0.790347
0.275005
0.127856
0.127777
0.790337
0.138807
0.138786
0.127838
0.797720
0.790265
0.275005
0.127789
0.127735
0.209072
0.138876
0.790407
0.138836
0.790299
0.275005
0.127805
0.790300
0.127827
0.127827
0.274972
0.137201
0.127750
0.127838
0.138866
0.275005
0.138824
0.127787
0.790761
0.138847
0.790337
0.127735
0.138893
0.790278
0.138755
0.790329
0.790288
0.138847
0.790169
0.790223
0.138847
0.209211
0.790346
0.790199
0.127789
0.138866
0.138847
0.790251
0.138866
0.127856
0.127735
0.138866
0.127761
0.127723
0.209226
0.275005
0.138893
0.790329
0.275108
0.127810
0.138876
0.128315
0.789634
0.790315
0.790288
0.127735
0.275005
0.138876
0.275005
0.127856
0.138866
0.138807
0.138847
0.810429
0.138866
0.810313
0.138866
0.789974
0.127856
0.275005
0.128315
0.275005
0.138847
0.127838
0.275005
0.127846
0.127805
0.138812
0.138818
0.275005
0.138809
0.790402
0.138893
0.127789
0.127846
0.127751
0.138866
0.791050
0.128315
0.592301
0.138876
0.127735
0.808514
0.127806
0.138762
0.127856
0.127751
0.127709
0.127755
0.138893
0.138858
0.127735
0.138876
0.790285
0.127806
0.138866
0.209017
0.127816
0.138776
0.138847
0.236686
0.127777
0.127777
0.790343
0.790304
0.127777
0.790284
0.127787
0.790354
0.138893
0.790283
0.127805
0.138847
0.138755
0.127805
0.790355
0.810449
0.127768
0.808373
0.127787
0.138876
0.790251
0.138866
0.127735
0.209020
0.127709
0.127777
0.790251
0.790369
0.789717
0.138824
0.127723
0.138847
0.127827
0.127838
0.127777
0.790407
0.128315
0.198470
0.138847
0.138866
0.127846
0.790283
0.127735
0.138876
0.127777
0.127827
0.127789
0.209011
0.127827
0.127735
0.134461
0.127744
0.127789
0.138786
0.127709
0.138866
0.127761
0.128315
0.274954
0.790352
0.790251
0.127768
0.810267
0.127806
0.790316
0.138762
0.278294
0.138818
0.127787
0.275128
0.127768
0.138866
0.127755
0.191086
0.790407
0.790439
0.209211
0.790359
0.790305
0.790396
0.127744
0.790348
0.278294
0.127768
0.138812
0.275049
0.127838
0.138847
0.797899
0.138858
0.789813
0.127789
0.209011
0.789997
0.138893
0.138876
0.127749
0.790338
0.127749
0.790361
0.127846
0.138866
0.790365
0.790251
0.127801
0.127805
0.138847
0.138866
0.127735
0.790380
0.790175
0.790175
0.138866
0.138807
0.790251
0.138816
0.138866
0.127789
0.810317
0.138786
0.791050
0.127856
0.138807
0.420768
0.791050
0.790329
0.127827
0.127755
0.127838
0.128315
0.191086
0.127816
0.127777
0.138755
0.790342
0.127750
0.198470
0.791050
0.127744
0.138893
0.138893
0.127856
0.420768
0.138776
0.275005
0.790338
0.791050
0.127838
0.790416
0.127777
0.138876
0.138876
0.795379
0.127856
0.198470
0.790377
0.138755
0.790338
0.127726
0.138836
0.790377
0.790367
0.128315
0.127755
0.138836
0.138876
0.127810
0.790416
0.275005
0.127755
0.138824
0.790329
0.127750
0.127755
0.138893
0.790305
0.127806
0.127709
0.138818
0.810387
0.127838
0.790350
0.789697
0.127768
0.127789
0.637325
0.127856
0.138812
0.790329
0.275005
0.790355
0.138811
0.138762
0.276671
0.138762
0.790338
0.138893
0.138811
0.138866
0.790374
0.275108
0.138866
0.209211
0.275005
0.127838
0.138755
0.127838
0.138755
0.138847
0.790400
0.275156
0.127805
0.138836
0.138866
0.127777
0.127768
0.138876
0.209211
0.127709
0.791050
0.127856
0.790342
0.790300
0.790359
0.138866
0.790353
0.138893
0.790386
0.138824
0.138876
0.138776
0.128481
0.790305
0.790268
0.276671
0.790223
0.275016
0.127744
0.138847
0.790363
0.275005
0.127777
0.790376
0.127768
0.128315
0.138876
0.127755
0.209226
0.790251
0.127735
0.790416
0.138893
0.127755
0.127846
0.791050
0.790131
0.128315
0.127787
0.790374
0.138876
0.127777
0.127755
0.127768
0.127726
0.138847
0.275005
0.236686
0.127856
0.790251
0.127838
0.127777
0.138847
0.138876
0.138858
0.133610
0.127726
0.138824
0.790296
0.127750
0.128315
0.789581
0.127856
0.127838
0.138893
0.795379
0.127856
0.198470
0.138876
0.127777
0.138847
0.790346
0.127856
0.790299
0.138847
0.138716
0.138876
0.138762
0.275005
0.790339
0.138876
0.139892
0.138847
0.127806
0.790374
0.791050
0.138876
0.127827
0.127789
0.127709
0.128315
0.789868
0.790316
0.127856
0.127827
0.127827
0.127744
0.138847
0.791050
0.790374
0.209086
0.149828
0.810449
0.138847
0.138847
0.127777
0.133610
0.138809
0.127789
0.138876
0.127846
0.790379
0.790374
0.138866
0.127726
0.137201
0.127750
0.134461
0.138876
0.138812
0.138893
0.149828
0.790305
0.138893
0.790251
0.138847
0.138876
0.138858
0.791050
0.127768
0.138847
0.790367
0.791050
0.138876
0.138893
0.591622
0.127835
0.790282
0.790414
0.790396
0.791050
0.127838
0.127726
0.138811
0.127749
0.127846
0.127846
0.138893
0.790379
0.127846
0.127755
0.127789
0.274954
0.138893
0.790299
0.790251
0.791050
0.127856
0.127750
0.128315
0.138755
0.810449
0.138816
0.209020
0.138816
0.127751
0.791050
0.138818
0.127709
0.138847
0.138847
0.127777
0.791050
0.127777
0.138811
0.790296
0.275005
0.128315
0.127810
0.127751
0.138893
0.138716
0.139892
0.127726
0.790183
0.790379
0.236686
0.198470
0.790343
0.274954
0.127835
0.138876
0.790336
0.127709
0.127856
0.138847
0.127768
0.127789
0.790380
0.127709
0.127735
0.790853
0.138893
0.138893
0.127846
0.275005
0.138893
0.274972
0.138893
0.127768
0.127838
0.127768
0.127750
0.790350
0.138811
0.789833
0.127787
0.198470
0.209211
0.127835
0.138847
0.139892
0.209226
0.127805
0.790191
0.275110
0.127735
0.138807
0.138811
0.127768
0.127735
0.127761
0.138866
0.138866
0.139892
0.127750
0.127735
0.134461
0.128481
0.274954
0.127846
0.209020
0.810442
0.790343
0.127777
0.138836
0.138893
0.138786
0.275005
0.127805
0.790957
0.209072
0.128315
0.127805
0.790359
0.810317
0.209211
0.138811
0.808373
0.127749
0.127768
0.127805
0.139892
0.127787
0.275005
0.275091
0.790403
0.128481
0.790364
0.127755
0.790251
0.790308
0.191086
0.127726
0.138811
0.127750
0.138824
0.790284
0.790342
0.127838
0.790416
0.127749
0.127816
0.127755
0.127827
0.139514
0.278294
0.138807
0.127709
0.127709
0.790395
0.127749
0.138876
0.127789
0.138807
0.790251
0.138807
0.127749
0.127750
0.275005
0.138836
0.127805
0.138876
0.137201
0.127827
0.127723
0.134461
0.127726
0.127750
0.138847
0.138847
0.127827
0.808373
0.138811
0.790251
0.127768
0.127709
0.138847
0.138893
0.790316
0.790436
0.790367
0.127768
0.127735
0.790348
0.127777
0.138809
0.791050
0.810450
0.138893
0.790402
0.796817
0.127744
0.790107
0.209020
0.127789
0.790297
0.138866
0.275005
0.127810
0.138776
0.127801
0.790316
0.138847
0.127726
0.790348
0.209211
0.275018
0.127749
0.127816
0.810442
0.127827
0.790386
0.275090
0.790379
0.127805
0.592301
0.127838
0.315525
0.127838
0.127801
0.128315
0.127789
0.127846
0.790292
0.810452
0.127846
0.810313
0.127789
0.138836
0.790167
0.127709
0.127751
0.791050
0.127838
0.790340
0.127787
0.790354
0.790300
0.790268
0.790336
0.138893
0.556764
0.127744
0.127789
0.138847
0.276671
0.127856
0.791050
0.127838
0.209226
0.139514
0.127805
0.127744
0.275005
0.127777
0.790396
0.127750
0.808514
0.127755
0.127838
0.138812
0.790957
0.127709
0.790301
0.138816
0.127749
0.790118
0.198470
0.138786
0.138858
0.128315
0.275005
0.127816
0.791050
0.138824
0.790426
0.740061
0.127846
0.138893
0.792106
0.127768
0.138716
0.138847
0.127846
0.790370
0.139514
0.127838
0.127789
0.138812
0.138876
0.138893
0.127768
0.790315
0.127846
0.790316
0.127744
0.275005
0.790251
0.138893
0.138847
0.128315
0.127806
0.790251
0.127806
0.127768
0.790251
0.127777
0.133610
0.138866
0.791050
0.127749
0.790402
0.127801
0.209072
0.791050
0.138716
0.137201
0.275005
0.791050
0.138866
0.127749
0.790316
0.134461
0.127838
0.138876
0.791050
0.790314
0.127789
0.790263
0.138811
0.790439
0.127709
0.127827
0.209011
0.127777
0.134461
0.790357
0.127827
0.127789
0.209020
0.138866
0.127827
0.127735
0.127744
0.790304
0.127856
0.138893
0.127755
0.127750
0.127755
0.790284
0.127749
0.790371
0.127768
0.138816
0.790326
0.127805
0.790251
0.127856
0.138876
0.138847
0.127835
0.138866
0.127789
0.128315
0.790512
0.138807
0.275073
0.592301
0.236686
0.791050
0.127827
0.134461
0.790336
0.149828
0.138809
0.790311
0.139892
0.127777
0.127827
0.790336
0.275035
0.790338
0.790316
0.127709
0.274982
0.127735
0.790761
0.138866
0.790379
0.138866
0.209086
0.127816
0.127709
0.127750
0.127827
0.128315
0.790284
0.127750
0.127777
0.127755
0.127816
0.138812
0.127777
0.127723
0.128315
0.138876
0.275015
0.790292
0.790303
0.134461
0.138776
0.790374
0.138818
0.138893
0.790357
0.139514
0.274969
0.138812
0.138876
0.465681
0.138876
0.794279
0.127709
0.789868
0.138762
0.790316
0.127846
0.127805
0.790344
0.138893
0.127856
0.138847
0.127827
0.138811
0.790251
0.127709
0.138847
0.789809
0.138811
0.127751
0.790338
0.790342
0.278294
0.138866
0.790296
0.138858
0.127749
0.127801
0.791050
0.275005
0.790299
0.127789
0.138893
0.127777
0.127816
0.791050
0.138762
0.127768
0.127827
0.127735
0.275005
0.127810
0.790369
0.138716
0.128315
0.790300
0.127801
0.209072
0.128481
0.138847
0.275135
0.790402
0.808373
0.127750
0.138876
0.127755
0.128315
0.128315
0.127856
0.790053
0.790191
0.127744
0.790268
0.127709
0.209086
0.138807
0.138755
0.275020
0.138893
0.127789
0.209226
0.138811
0.127735
0.790251
0.128315
0.127755
0.127744
0.138858
0.127777
0.127838
0.790436
0.138858
0.790374
0.127735
0.791050
0.790396
0.134461
0.790364
0.790268
0.127827
0.127751
0.138876
0.790337
0.790251
0.275018
0.127761
0.209020
0.128481
0.128315
0.127755
0.790395
0.127846
0.790299
0.138755
0.790268
0.810429
0.138847
0.127761
0.138812
0.138847
0.791977
0.127750
0.209020
0.790379
0.790048
0.275096
0.209072
0.138893
0.138824
0.127709
0.127805
0.138824
0.209226
0.789814
0.127827
0.127856
0.138716
0.790181
0.790251
0.127827
0.791050
0.138847
0.138824
0.127744
0.127835
0.138824
0.127846
0.133610
0.138866
0.127789
0.127735
0.138847
0.138816
0.138847
0.138893
0.127856
0.790251
0.127787
0.127709
0.127709
0.209020
0.790377
0.138893
0.791050
0.810369
0.127805
0.138876
0.128315
0.790405
0.790348
0.275005
0.127768
0.209211
0.138876
0.790301
0.127750
0.127856
0.138893
0.127856
0.138824
0.790405
0.790352
0.127856
0.127806
0.275097
0.133610
0.127806
0.138876
0.790251
0.138876
0.129260
0.138809
0.790363
0.790342
0.139892
0.796817
0.138858
0.139514
0.127749
0.127735
0.138824
0.809601
0.274981
0.592301
0.138762
0.790301
0.790363
0.790350
0.127787
0.209211
0.127755
0.790406
0.128315
0.209072
0.127787
0.275049
0.138876
0.790354
0.127735
0.127805
0.790251
0.790338
0.209017
0.209072
0.129260
0.790251
0.127755
0.790714
0.127735
0.127846
0.127755
0.127846
0.809601
0.127787
0.127816
0.790305
0.127805
0.275005
0.138816
0.127846
0.790340
0.127846
0.127735
0.127789
0.790265
0.138847
0.138876
0.127789
0.127856
0.127827
0.810448
0.138866
0.138824
0.790316
0.791050
0.127761
0.127846
0.209226
0.127768
0.790416
0.127777
0.127806
0.127838
0.128315
0.275005
0.127805
0.790380
0.127806
0.275150
0.127805
0.138893
0.790376
0.133610
0.790305
0.790294
0.128315
0.127846
0.127749
0.138866
0.127816
0.191086
0.128315
0.138776
0.138824
0.138809
0.209211
0.209017
0.275005
0.128315
0.138762
0.127755
0.127755
0.127838
0.275005
0.138755
0.127750
0.127787
0.138876
0.138866
0.138809
0.790374
0.127726
0.138812
0.790251
0.138876
0.149828
0.127856
0.127750
0.138893
0.790369
0.790355
0.275005
0.138876
0.790300
0.138876
0.274961
0.138847
0.790415
0.138824
0.138776
0.127789
0.127750
0.138858
0.138847
0.794279
0.209086
0.275005
0.138811
0.790348
0.127777
0.138824
0.790016
0.138847
0.127777
0.138847
0.275005
0.592301
0.138876
0.138847
0.209072
0.275005
0.138866
0.138776
0.127751
0.790367
0.276671
0.275005
0.790365
0.138876
0.790333
0.790370
0.790328
0.790283
0.127777
0.790340
0.127777
0.791050
0.127846
0.790316
0.134461
0.127709
0.127789
0.138824
0.209017
0.127726
0.128315
0.138716
0.127835
0.127750
0.191086
0.127827
0.790389
0.138866
0.275005
0.790316
0.138866
0.789770
0.275005
0.790336
0.127768
0.127856
0.127735
0.790268
0.138836
0.790329
0.275005
0.127838
0.127755
0.198470
0.791050
0.128315
0.127761
0.790370
0.790336
0.790407
0.127827
0.138807
0.138847
0.127856
0.790251
0.790291
0.138876
0.790251
0.127856
0.138847
0.138893
0.138807
0.138811
0.138866
0.127709
0.789651
0.127735
0.790366
0.127777
0.127827
0.127816
0.127750
0.790314
0.810450
0.275005
0.790251
0.127827
0.790406
0.790299
0.790336
0.790400
0.790376
0.790352
0.138876
0.127827
0.790251
0.790300
0.127777
0.803019
0.138716
0.791050
0.127709
0.790251
0.790300
0.127755
0.138755
0.127709
0.790191
0.790402
0.138816
0.790181
0.127777
0.790296
0.139892
0.138824
0.127787
0.127846
0.191086
0.138847
0.138818
0.127709
0.790251
0.127856
0.138818
0.127827
0.134461
0.209086
0.790315
0.127750
0.127751
0.138893
0.128481
0.127744
0.236686
0.790316
0.127750
0.127777
0.127777
0.127827
0.127827
0.790444
0.275005
0.138812
0.790347
0.138847
0.127827
0.191086
0.790299
0.127835
0.789968
0.790445
0.790314
0.790405
0.790377
0.127735
0.127846
0.790373
0.127777
0.127777
0.138716
0.138811
0.137201
0.790376
0.139892
0.138876
0.790251
0.129260
0.127856
0.127735
0.127805
0.127856
0.127838
0.790280
0.127789
0.127806
0.138762
0.127846
0.790364
0.127846
0.127856
0.790251
0.274954
0.138866
0.790376
0.790251
0.209211
0.128315
0.790337
0.790251
0.127777
0.127777
0.127805
0.127777
0.139514
0.127777
0.209072
0.127801
0.129260
0.138762
0.127755
0.127835
0.790300
0.127744
0.127750
0.790316
0.127755
0.791050
0.128315
0.138866
0.127838
0.127806
0.275005
0.127709
0.138866
0.127805
0.275005
0.128315
0.127726
0.790341
0.138811
0.790406
0.127709
0.138776
0.127735
0.275031
0.790348
0.790377
0.127777
0.127835
0.138847
0.790251
0.127856
0.127768
0.790251
0.790284
0.138893
0.127827
0.138824
0.138893
0.127835
0.138755
0.127777
0.275039
0.138809
0.790354
0.138776
0.127751
0.127750
0.138866
0.138809
0.127789
0.138876
0.790363
0.275005
0.127761
0.138876
0.209020
0.138893
0.790207
0.138812
0.138866
0.138818
0.127846
0.127827
0.275057
0.790340
0.138876
0.127805
0.138824
0.127801
0.792106
0.808373
0.275005
0.137201
0.127805
0.209020
0.127838
0.274985
0.138776
0.138786
0.790346
0.790299
0.138811
0.127856
0.127787
0.127768
0.127751
0.127751
0.127789
0.127744
0.790338
0.138836
0.127751
0.127751
0.790388
0.127835
0.127751
0.138847
0.790332
0.790444
0.810442
0.127801
0.275005
0.127749
0.127805
0.127768
0.129260
0.790761
0.138762
0.275005
0.790435
0.790444
0.138812
0.127846
0.138776
0.209226
0.790777
0.137201
0.127777
0.790251
0.128481
0.790284
0.138824
0.790374
0.138812
0.149828
0.138847
0.127723
0.138847
0.127755
0.127835
0.790351
0.138716
0.128315
0.138847
0.138866
0.275039
0.127856
0.127777
0.128315
0.790405
0.127846
0.790336
0.127751
0.127777
0.127827
0.790285
0.138824
0.790361
0.127805
0.790384
0.790371
0.790416
0.127749
0.790016
0.795379
0.138786
0.138893
0.127846
0.127827
0.790367
0.127735
0.790249
0.127806
0.127709
0.138876
0.791050
0.138876
0.138893
0.127777
0.138876
0.790371
0.127751
0.127856
0.209226
0.236686
0.790373
0.138876
0.790305
0.790379
0.138858
0.127856
0.138811
0.127735
0.790348
0.138866
0.127789
0.127846
0.138847
0.127777
0.790416
0.138847
0.209072
0.127749
0.790348
0.127827
0.790440
0.790316
0.138866
0.138866
0.138858
0.275005
0.129260
0.127827
0.134461
0.127749
0.127751
0.138847
0.275005
0.138847
0.138818
0.790301
0.790423
0.127750
0.790293
0.138824
0.138876
0.138818
0.138893
0.790348
0.138876
0.138866
0.138876
0.128315
0.138876
0.209226
0.138876
0.127810
0.809601
0.128315
0.138818
0.127806
0.127846
0.790344
0.127749
0.127735
0.138858
0.127846
0.274971
0.138893
0.138776
0.137201
0.127789
0.127735
0.127827
0.790416
0.127805
0.138824
0.138847
0.127749
0.127789
0.138893
0.138811
0.149828
0.127755
0.128481
0.127768
0.138716
0.138876
0.138824
0.127816
0.138762
0.128315
0.275029
0.138866
0.790316
0.127805
0.790340
0.138866
0.790301
0.790354
0.275005
0.790428
0.556764
0.127749
0.790350
0.790389
0.138716
0.127750
0.138824
0.138847
0.127735
0.127801
0.790377
0.133610
0.127709
0.790447
0.138824
0.128315
0.149828
0.127816
0.138893
0.789796
0.790251
0.790416
0.790440
0.127827
0.127838
0.127744
0.790421
0.127789
0.138876
0.790342
0.138847
0.790358
0.138876
0.275150
0.127777
0.790339
0.138755
0.810369
0.790363
0.138876
0.127838
0.127750
0.790265
0.138809
0.138876
0.138824
0.209226
0.127816
0.127827
0.275005
0.790374
0.790150
0.138876
0.127816
0.138762
0.127827
0.138893
0.790316
0.138866
0.789717
0.138893
0.138876
0.791050
0.790292
0.128315
0.127751
0.127789
0.790440
0.717230
0.275005
0.127805
0.138809
0.127787
0.127735
0.127709
0.791050
0.138876
0.790376
0.790357
0.791050
0.790315
0.138824
0.127838
0.209072
0.790251
0.138812
0.790366
0.790342
0.790251
0.127846
0.789997
0.790251
0.127723
0.790363
0.127726
0.790112
0.790342
0.127777
0.127735
0.128315
0.127777
0.127801
0.740061
0.810313
0.127856
0.127846
0.127755
0.790283
0.209226
0.127777
0.127856
0.790329
0.275005
0.127735
0.127755
0.127827
0.127768
0.810310
0.138847
0.138847
0.127709
0.138866
0.127810
0.790328
0.138858
0.790714
0.790251
0.138866
0.127777
0.128315
0.791050
0.791050
0.127816
0.138866
0.138893
0.138876
0.127777
0.797720
0.791050
0.127827
0.138893
0.138762
0.790282
0.790338
0.127846
0.127777
0.790251
0.127789
0.128481
0.772696
0.127787
0.790339
0.209211
0.790299
0.790348
0.127749
0.790251
0.127755
0.790316
0.127789
0.790251
0.139514
0.209086
0.465681
0.128315
0.127726
0.790421
0.790251
0.127709
0.138836
0.138836
0.138824
0.790777
0.127787
0.209211
0.127789
0.791050
0.127856
0.138876
0.134461
0.127805
0.127755
0.810313
0.791050
0.127805
0.138807
0.129260
0.790370
0.128315
0.127838
0.740061
0.127749
0.138876
0.791050
0.127723
0.133610
0.790283
0.740061
0.790338
0.790251
0.138866
0.127806
0.790348
0.127755
0.790301
0.127787
0.790251
0.127801
0.275005
0.790354
0.127827
0.127777
0.138807
0.790714
0.127805
0.138824
0.138876
0.127838
0.790316
0.127856
0.127755
0.138847
0.127856
0.802688
0.138807
0.127755
0.138866
0.127709
0.127827
0.138866
0.808514
0.790352
0.791050
0.790316
0.209211
0.275005
0.127805
0.275005
0.138866
0.791050
0.790337
0.149828
0.133610
0.138876
0.138847
0.127838
0.138866
0.790336
0.772696
0.127755
0.138876
0.275005
0.138824
0.138866
0.275023
0.790300
0.128315
0.127838
0.127777
0.127749
0.127816
0.790284
0.127789
0.138818
0.127856
0.127749
0.810452
0.139892
0.127777
0.138858
0.790338
0.127709
0.138876
0.790251
0.791050
0.790366
0.790358
0.127801
0.138811
0.127838
0.127789
0.138824
0.138824
0.127801
0.127749
0.127749
0.138818
0.127789
0.138847
0.791050
0.138847
0.275005
0.127856
0.790794
0.790359
0.127789
0.138755
0.127749
0.138893
0.790296
0.127777
0.790317
0.790263
0.127709
0.790355
0.127749
0.790303
0.790258
0.138812
0.138847
0.127846
0.127755
0.791050
0.128315
0.138866
0.127789
0.127810
0.127827
0.792106
0.138812
0.127755
0.790853
0.790118
0.138847
0.790374
0.275005
0.127838
0.139892
0.138818
0.790367
0.138762
0.138786
0.127805
0.790317
0.278294
0.127735
0.790358
0.787936
0.420768
0.790282
0.138847
0.275005
0.129260
0.127805
0.790251
0.127801
0.127777
0.127838
0.138847
0.790416
0.275005
0.129260
0.790563
0.127806
0.127816
0.790353
0.128315
0.127749
0.138866
0.790347
0.591622
0.127755
0.127709
0.209211
0.191086
0.127751
0.127750
0.789661
0.198470
0.127827
0.127789
0.127726
0.127827
0.127805
0.790354
0.127735
0.209017
0.138876
0.137201
0.127827
0.138809
0.790292
0.790336
0.790339
0.810429
0.209211
0.791050
0.138876
0.128315
0.138824
0.790298
0.790347
0.127726
0.810373
0.128315
0.138893
0.275062
0.790316
0.127735
0.127749
0.138847
0.127723
0.789806
0.275049
0.790236
0.128315
0.127755
0.138847
0.127856
0.790329
0.127856
0.138893
0.127723
0.127777
0.127749
0.138893
0.127749
0.138858
0.127750
0.790251
0.138858
0.128315
0.790299
0.127806
0.127777
0.134461
0.138755
0.127755
0.275042
0.138893
0.127751
0.790251
0.138876
0.139892
0.127709
0.275030
0.275005
0.790327
0.790370
0.138876
0.790299
0.138847
0.790352
0.796817
0.790357
0.790334
0.275005
0.138755
0.275005
0.127768
0.790347
0.198470
0.137201
0.127816
0.275052
0.275005
0.138893
0.138893
0.138755
0.138847
0.127827
0.127735
0.139892
0.790340
0.127827
0.138893
0.127726
0.420768
0.127777
0.465681
0.790294
0.138847
0.791050
0.138816
0.127709
0.275005
0.138876
0.127856
0.790251
0.795379
0.790423
0.138818
0.790128
0.790364
0.790285
0.127835
0.138876
0.127768
0.791050
0.127735
0.790395
0.138893
0.138847
0.127735
0.138816
0.127838
0.138824
0.790364
0.127856
0.790354
0.149828
0.127856
0.127735
0.790359
0.127723
0.127789
0.128315
0.127805
0.138847
0.127744
0.129260
0.790316
0.127744
0.127789
0.127735
0.790374
0.127789
0.138876
0.790137
0.138876
0.127789
0.209011
0.128315
0.275005
0.128481
0.138716
0.275027
0.149828
0.127735
0.127750
0.275005
0.790316
0.127856
0.790336
0.127806
0.790379
0.790416
0.127806
0.275052
0.790251
0.791050
0.138866
0.790361
0.138811
0.790376
0.138809
0.138824
0.790265
0.138809
0.127789
0.127801
0.138812
0.138893
0.127735
0.138893
0.138776
0.790397
0.127709
0.127709
0.127735
0.790316
0.138762
0.790416
0.209011
0.138786
0.127755
0.275001
0.138755
0.134461
0.127789
0.138776
0.790336
0.127755
0.138866
0.138876
0.138876
0.138818
0.790361
0.127709
0.790336
0.127755
0.127806
0.127838
0.133610
0.791050
0.275005
0.127787
0.790409
0.127816
0.790339
0.791050
0.127838
0.138876
0.138893
0.127856
0.791050
0.128315
0.133610
0.275005
0.275005
0.127735
0.790338
0.127838
0.790367
0.138824
0.127755
0.138847
0.275030
0.138866
0.791050
0.129260
0.790400
0.149828
0.138893
0.791050
0.127749
0.127749
0.275005
0.127777
0.127709
0.127768
0.790367
0.128315
0.138807
0.127755
0.138811
0.127787
0.209226
0.127787
0.790251
0.138893
0.790285
0.128315
0.127750
0.127726
0.127838
0.127846
0.127709
0.127827
0.139892
0.127709
0.127751
0.138847
0.127856
0.138876
0.138847
0.790428
0.127801
0.275005
0.138811
0.138755
0.127856
0.127777
0.791050
0.127805
0.790316
0.138847
0.791050
0.138847
0.790396
0.127806
0.236686
0.790423
0.127744
0.127735
0.138836
0.127856
0.790338
0.790336
0.128315
0.790265
0.127838
0.127751
0.809601
0.127777
0.138876
0.127835
0.138893
0.138866
0.138816
0.790371
0.127777
0.133610
0.127827
0.790357
0.127789
0.138866
0.138807
0.138762
0.138755
0.790131
0.138858
0.127827
0.788958
0.127827
0.790444
0.790336
0.791050
0.128315
0.127777
0.149828
0.127709
0.127827
0.127726
0.790342
0.138847
0.790369
0.138847
0.275005
0.138893
0.138824
0.790339
0.139514
0.790291
0.790402
0.134461
0.138786
0.790423
0.128315
0.191086
0.138807
0.789997
0.810442
0.790268
0.790376
0.133610
0.138866
0.275005
0.138866
0.127744
0.790406
0.139892
0.138807
0.138716
0.127726
0.791050
0.127805
0.790303
0.127846
0.138866
0.790403
0.209020
0.275005
0.127726
0.789975
0.127789
0.127827
0.127787
0.127777
0.127838
0.127750
0.790251
0.138876
0.138818
0.137201
0.128315
0.127755
0.127777
0.127761
0.138866
0.138786
0.127846
0.138818
0.127838
0.127723
0.127789
0.209226
0.128315
0.127789
0.127709
0.127744
0.128481
0.127838
0.127709
0.790342
0.138847
0.275005
0.790251
0.591622
0.209017
0.127744
0.138893
0.127751
0.127827
0.127806
0.127755
0.127789
0.790316
0.127838
0.275128
0.138876
0.138893
0.127789
0.127827
0.790350
0.127749
0.790354
0.127755
0.128315
0.138811
0.138807
0.127777
0.790299
0.127735
0.791050
0.127827
0.138866
0.127744
0.138893
0.127750
0.790299
0.127777
0.790271
0.127846
0.134461
0.137201
0.134461
0.138866
0.127805
0.138847
0.138893
0.790761
0.127709
0.209211
0.127750
0.127816
0.138762
0.127835
0.127787
0.127768
0.790512
0.791312
0.128315
0.790300
0.127846
0.138893
0.138824
0.134461
0.138858
0.198470
0.127810
0.138755
0.138876
0.275005
0.138811
0.127806
0.137201
0.790298
0.790395
0.127838
0.127801
0.138847
0.127709
0.127827
0.127856
0.138847
0.127827
0.127846
0.275150
0.810401
0.790292
0.127777
0.138716
0.790251
0.791050
0.790337
0.129260
0.127806
0.790305
0.127768
0.127750
0.127777
0.127709
0.127755
0.790251
0.127787
0.138786
0.790402
0.790418
0.138876
0.127789
0.127777
0.127827
0.139892
0.127735
0.790251
0.127805
0.790058
0.138866
0.138824
0.127846
0.592301
0.789968
0.138876
0.127805
0.127755
0.138847
0.127709
0.790359
0.127789
0.138824
0.138812
0.790048
0.127789
0.138776
0.127789
0.790366
0.138816
0.127816
0.128315
0.810369
0.198470
0.790338
0.790251
0.790251
0.790299
0.127789
0.127709
0.791050
0.209211
0.790070
0.138812
0.127755
0.127805
0.790373
0.790376
0.790316
0.127846
0.127789
0.661063
0.127787
0.790305
0.790777
0.127726
0.127827
0.127789
0.127744
0.127709
0.127846
0.127755
0.790251
0.806732
0.127789
0.127806
0.127735
0.790366
0.138893
0.138824
0.127827
0.128315
0.275005
0.127744
0.127805
0.275128
0.138847
0.127751
0.138836
0.791050
0.791050
0.792106
0.790348
0.129260
0.128315
0.138858
0.138847
0.791050
0.127777
0.127856
0.127777
0.138847
0.127816
0.138876
0.790251
0.275005
0.138776
0.127709
0.138824
0.790251
0.128315
0.127749
0.137201
0.127749
0.127755
0.138818
0.127787
0.138824
0.138847
0.138762
0.198470
0.127749
0.127816
0.127838
0.810267
0.790877
0.127827
0.139514
0.127761
0.128315
0.127789
0.138824
0.127787
0.127789
0.139892
0.127726
0.275021
0.275005
0.790329
0.275005
0.790348
0.790251
0.138807
0.138847
0.127789
0.808514
0.790058
0.138847
0.138893
0.138866
0.275005
0.790416
0.138858
0.138816
0.134461
0.191086
0.790282
0.127789
0.127810
0.138866
0.127856
0.138755
0.209086
0.790303
0.127856
0.127750
0.128315
0.127750
0.790367
0.790338
0.138847
0.138876
0.127805
0.275005
0.127726
0.127709
0.591622
0.138762
0.127777
0.127777
0.127750
0.790265
0.790276
0.138847
0.790384
0.127846
0.138811
0.790302
0.790403
0.198470
0.275016
0.275005
0.790379
0.138776
0.790169
0.790268
0.789806
0.790265
0.791050
0.275005
0.138776
0.127751
0.139514
0.127749
0.790340
0.790296
0.138716
0.209086
0.127726
0.127789
0.127805
0.138847
0.149828
0.138866
0.138716
0.127735
0.275005
0.127777
0.138847
0.791050
0.138876
0.127838
0.138847
0.139514
0.127755
0.138876
0.275005
0.127856
0.127789
0.790396
0.790426
0.138716
0.127768
0.127838
0.127761
0.791050
0.209020
0.138866
0.790016
0.127856
0.789717
0.209011
0.236686
0.127768
0.790251
0.790336
0.138786
0.127801
0.138755
0.790376
0.790291
0.790334
0.127749
0.128315
0.790400
0.127749
0.790388
0.275005
0.127789
0.127777
0.127755
0.138876
0.127750
0.127789
0.790285
0.810405
0.790251
0.138876
0.138836
0.802688
0.138866
0.791050
0.790316
0.138812
0.134461
0.134461
0.127838
0.795379
0.134461
0.138812
0.127777
0.127789
0.790339
0.790367
0.790296
0.275005
0.134461
0.127735
0.127735
0.790364
0.127735
0.276671
0.127777
0.138876
0.127755
0.127838
0.127755
0.127768
0.127838
0.275005
0.790251
0.808373
0.127751
0.134461
0.138824
0.275005
0.127750
0.790342
0.138893
0.129260
0.127846
0.134461
0.127755
0.127755
0.127777
0.810415
0.790416
0.139892
0.790293
0.790316
0.138824
0.138762
0.810310
0.138858
0.740061
0.790374
0.127816
0.790316
0.209211
0.127749
0.209020
0.138847
0.790316
0.137201
0.127777
0.275005
0.790332
0.209017
0.790406
0.138786
0.127735
0.790251
0.274981
0.127768
0.790402
0.275005
0.138836
0.127838
0.127755
0.790316
0.790251
0.275005
0.127750
0.790301
0.789806
0.149828
0.790370
0.790268
0.127827
0.138858
0.790300
0.790416
0.791050
0.808514
0.138818
0.127751
0.790364
0.127789
0.127827
0.138755
0.138866
0.128315
0.127777
0.275040
0.309967
0.790348
0.138858
0.138876
0.138762
0.275016
0.790402
0.810313
0.138824
0.127801
0.790294
0.127816
0.138876
0.127789
0.138847
0.128315
0.275005
0.138876
0.127805
0.127709
0.127838
0.127744
0.278294
0.127805
0.138866
0.790374
0.127709
0.128315
0.128315
0.791050
0.127805
0.810442
0.139892
0.138716
0.127755
0.127856
0.138807
0.790358
0.790396
0.138716
0.138847
0.791050
0.127801
0.138876
0.789697
0.790345
0.790364
0.127856
0.791050
0.790251
0.127846
0.128315
0.127749
0.209226
0.127856
0.790377
0.275005
0.127751
0.740061
0.127838
0.127856
0.795379
0.790370
0.127709
0.127744
0.790316
0.127777
0.134461
0.790343
0.127789
0.790354
0.127755
0.790367
0.138876
0.772696
0.790367
0.127789
0.127755
0.127805
0.127709
0.717230
0.138876
0.127735
0.138858
0.138812
0.128315
0.127856
0.138876
0.129260
0.127846
0.209086
0.127749
0.127838
0.127709
0.138807
0.138812
0.127750
0.138893
0.127801
0.138858
0.790251
0.138847
0.790367
0.127838
0.127750
0.138847
0.138824
0.127777
0.791050
0.127750
0.790285
0.138816
0.791050
0.138776
0.790236
0.127709
0.128481
0.127750
0.127827
0.127805
0.790384
0.127856
0.790377
0.791050
0.789939
0.127709
0.790251
0.790316
0.275005
0.209086
0.127846
0.127777
0.790350
0.138755
0.127805
0.138893
0.127789
0.810415
0.127709
0.127709
0.138776
0.127735
0.138847
0.127856
0.791050
0.790053
0.138893
0.138858
0.129260
0.275005
0.791050
0.138847
0.138893
0.127755
0.138847
0.127806
0.127838
0.138866
0.138818
0.127777
0.790358
0.790329
0.128315
0.149828
0.127805
0.138876
0.127726
0.127789
0.791050
0.127789
0.275023
0.127835
0.127801
0.127846
0.138876
0.790386
0.127755
0.149828
0.790265
0.138866
0.127856
0.139514
0.198470
0.138824
0.129260
0.275005
0.790299
0.506740
0.138876
0.127810
0.127838
0.139892
0.790354
0.791050
0.790251
0.138866
0.138824
0.209211
0.275124
0.790251
0.127777
0.209020
0.127789
0.138876
0.138824
0.127856
0.127750
0.127750
0.275116
0.127838
0.149828
0.129260
0.127777
0.128315
0.790251
0.790405
0.790350
0.790406
0.138866
0.790251
0.127744
0.127789
0.138811
0.138876
0.127856
0.127801
0.274954
0.127735
0.127755
0.127838
0.127805
0.127751
0.790268
0.127709
0.138847
0.138847
0.790405
0.138824
0.138762
0.127816
0.127856
0.790343
0.138811
0.138847
0.127709
0.138847
0.127735
0.275042
0.789939
0.138847
0.138893
0.138893
0.791050
0.802753
0.275005
0.127838
0.138876
0.138858
0.127777
0.138776
0.127723
0.790299
0.138818
0.138876
0.127777
0.276671
0.810415
0.790364
0.137201
0.275005
0.127806
0.127846
0.790291
0.790337
0.790423
0.127768
0.138893
0.790298
0.127750
0.138762
0.138809
0.138786
0.138847
0.209072
0.275005
0.791050
0.127777
0.127735
0.810313
0.137201
0.127750
0.127777
0.790416
0.599119
0.127768
0.138776
0.790316
0.740061
0.127768
0.127768
0.209211
0.127806
0.138812
0.138893
0.127827
0.275005
0.209211
0.138847
0.138812
0.790794
0.128315
0.149828
0.790333
0.127744
0.138847
0.138847
0.127805
0.191086
0.128315
0.127709
0.128315
0.129260
0.790169
0.790379
0.789717
0.790831
0.138762
0.127735
0.790373
0.790318
0.790379
0.810373
0.809601
0.127709
0.789997
0.127838
0.134461
0.127735
0.127750
0.138893
0.790367
0.138876
0.790251
0.138847
0.127744
0.138866
0.790373
0.138893
0.592301
0.138866
0.127755
0.191086
0.790371
0.127846
0.209017
0.790282
0.133610
0.138812
0.138809
0.138847
0.127816
0.275108
0.128315
0.420768
0.790296
0.592301
0.127789
0.275057
0.209226
0.790265
0.127777
0.790377
0.791050
0.790348
0.790376
0.127846
0.790794
0.127789
0.810429
0.191086
0.791050
0.790336
0.790336
0.127789
0.790379
0.191086
0.591622
0.790285
0.209086
0.127846
0.138762
0.127735
0.275005
0.790316
0.790327
0.127744
0.127755
0.790761
0.790291
0.791050
0.791050
0.790342
0.138847
0.275005
0.138762
0.790251
0.137201
0.790416
0.790251
0.790084
0.138893
0.810429
0.127805
0.137201
0.275005
0.127755
0.791050
0.796817
0.138812
0.790337
0.127735
0.790348
0.790444
0.127751
0.209086
0.790359
0.790374
0.127787
0.789974
0.138866
0.810500
0.128315
0.138847
0.790342
0.127801
0.137201
0.127838
0.138866
0.790342
0.810415
0.740061
0.127801
0.138755
0.790251
0.127749
0.790308
0.127744
0.791050
0.315525
0.138866
0.127735
0.138811
0.127777
0.127768
0.275005
0.127768
0.772696
0.127789
0.810450
0.790366
0.127755
0.127749
0.128315
0.127777
0.127856
0.127709
0.790314
0.138818
0.127827
0.790331
0.138847
0.740061
0.127838
0.139514
0.790301
0.127789
0.790338
0.127755
0.127846
0.790351
0.791050
0.790379
0.790316
0.127789
0.790369
0.790348
0.127789
0.138836
0.138866
0.236686
0.127789
0.127755
0.129260
0.127801
0.127838
0.791319
0.138824
0.275005
0.127751
0.127856
0.209011
0.790352
0.127856
0.127805
0.127755
0.138876
0.740061
0.810429
0.236686
0.790261
0.127810
0.138847
0.138893
0.790348
0.790369
0.138847
0.127856
0.275005
0.127856
0.790316
0.138876
0.790439
0.209226
0.128481
0.127806
0.138876
0.127709
0.790396
0.127777
0.138876
0.127805
0.149828
0.127735
0.791050
0.127735
0.275005
0.275005
0.138762
0.127761
0.790337
0.127709
0.790444
0.138776
0.138811
0.791319
0.127709
0.138836
0.138847
0.789697
0.198470
0.275005
0.138716
0.790316
0.790354
0.790361
0.127806
0.138847
0.127750
0.138893
0.127777
0.127723
0.198470
0.134461
0.138776
0.138876
0.127749
0.127768
0.790329
0.790318
0.127735
0.127810
0.138847
0.138866
0.127709
0.791050
0.138847
0.134461
0.138866
0.275031
0.420768
0.127709
0.138818
0.790251
0.127827
0.790251
0.127750
0.127838
0.127777
0.790354
0.790321
0.138812
0.138876
0.138893
0.127846
0.127827
0.138893
0.127744
0.790181
0.790288
0.138762
0.138876
0.138893
0.127749
0.789645
0.138755
0.138824
0.275073
0.789661
0.127827
0.138893
0.127846
0.134461
0.789939
0.138858
0.138893
0.465681
0.138866
0.127787
0.127789
0.127827
0.790128
0.127735
0.275031
0.127735
0.127789
0.138847
0.791050
0.138847
0.127856
0.138893
0.275005
0.127777
0.789968
0.790359
0.789796
0.138866
0.138809
0.127777
0.138824
0.790377
0.790342
0.138818
0.127787
0.149828
0.127838
0.275005
0.790290
0.127777
0.209017
0.127735
0.138811
0.420768
0.138876
0.209211
0.127735
0.138866
0.790416
0.790268
0.795379
0.127777
0.791050
0.138716
0.810313
0.138847
0.137201
0.810462
0.790374
0.275124
0.138847
0.138811
0.275005
0.790351
0.138866
0.127735
0.810450
0.790290
0.127749
0.127777
0.790251
0.127755
0.127777
0.127805
0.138811
0.790336
0.790338
0.790271
0.789729
0.791050
0.138847
0.810442
0.790316
0.138776
0.127789
0.275005
0.134461
0.127846
0.772696
0.127827
0.138893
0.128315
0.790053
0.128315
0.138876
0.790303
0.138866
0.127744
0.127750
0.274969
0.138858
0.138755
0.127755
0.275005
0.127827
0.790336
0.138847
0.128481
0.138836
0.127806
0.127856
0.791050
0.790251
0.134461
0.127735
0.790338
0.128315
0.127846
0.275005
0.127750
0.138876
0.127750
0.209017
0.127749
0.790251
0.127805
0.138716
0.127838
0.791050
0.790316
0.790317
0.127755
0.127856
0.127726
0.791050
0.138811
0.790341
0.790337
0.127856
0.810369
0.138786
0.209011
0.127827
0.127709
0.127827
0.138893
0.127777
0.790288
0.127787
0.127777
0.275005
0.138893
0.138776
0.138866
0.138847
0.127827
0.275005
0.790409
0.556764
0.790305
0.127755
0.138824
0.128315
0.127735
0.138876
0.790435
0.127709
0.790300
0.127755
0.275005
0.127827
0.209011
0.127856
0.790354
0.209211
0.127749
0.740061
0.209211
0.791050
0.138847
0.790317
0.127789
0.275005
0.275005
0.790374
0.275005
0.791312
0.275042
0.795379
0.790370
0.127709
0.127777
0.790377
0.127789
0.138755
0.790268
0.127777
0.191086
0.127789
0.127768
0.790381
0.127846
0.790351
0.127750
0.138893
0.791050
0.138812
0.138866
0.127723
0.790395
0.127755
0.127846
0.790305
0.275096
0.127787
0.127805
0.138847
0.138762
0.790336
0.127838
0.149828
0.127777
0.791050
0.138847
0.789814
0.790373
0.127768
0.127856
0.209211
0.790317
0.790316
0.790308
0.138847
0.138762
0.790345
0.127761
0.138866
0.802753
0.127755
0.127806
0.138807
0.138866
0.138847
0.127750
0.209086
0.138776
0.127777
0.789968
0.127805
0.127749
0.127735
0.127838
0.138824
0.139514
0.275005
0.465681
0.139514
0.127777
0.127827
0.790251
0.791050
0.138876
0.127787
0.790436
0.134461
0.789717
0.275023
0.127777
0.209011
0.138824
0.127749
0.127856
0.127806
0.127709
0.138876
0.138893
0.127755
0.138809
0.138847
0.137201
0.275108
0.791050
0.127750
0.127801
0.810485
0.138893
0.790348
0.790376
0.790316
0.790263
0.127709
0.127805
0.790291
0.137201
0.127768
0.138755
0.420768
0.790336
0.790366
0.209020
0.790359
0.138876
0.790251
0.127789
0.138858
0.127816
0.275005
0.139514
0.138836
0.127750
0.127735
0.790316
0.149828
0.790282
0.127827
0.127789
0.790058
0.236686
0.138809
0.790322
0.209011
0.138858
0.128481
0.793755
0.127789
0.149828
0.128315
0.275005
0.127761
0.790423
0.127806
0.209211
0.138847
0.138876
0.138807
0.127755
0.790365
0.137201
0.138847
0.790303
0.138893
0.127805
0.127777
0.138809
0.127768
0.275005
0.127801
0.791050
0.127838
0.138755
0.274947
0.138811
0.790316
0.127846
0.128481
0.138755
0.790314
0.138893
0.420768
0.127750
0.790379
0.138824
0.127755
0.138762
0.127777
0.790307
0.127709
0.138762
0.127856
0.790251
0.133610
0.138876
0.127751
0.127777
0.138836
0.127827
0.592301
0.275128
0.209226
0.138716
0.209226
0.127744
0.133610
0.127735
0.127789
0.791050
0.275076
0.275005
0.127749
0.138762
0.790563
0.127827
0.138786
0.127735
0.138824
0.127789
0.138755
0.790395
0.127726
0.138824
0.127789
0.790445
0.139514
0.138786
0.127856
0.790373
0.138893
0.790370
0.127751
0.127856
0.138893
0.790373
0.127750
0.127838
0.127838
0.138818
0.138786
0.789717
0.791050
0.138866
0.790339
0.790107
0.134461
0.138893
0.790423
0.138847
0.127709
0.127709
0.128481
0.789868
0.127749
0.127750
0.127768
0.127749
0.127755
0.149828
0.790426
0.127755
0.138812
0.127846
0.138893
0.138824
0.127735
0.127787
0.209072
0.138876
0.127744
0.138824
0.127789
0.137201
0.138812
0.138893
0.129260
0.127789
0.790291
0.138824
0.592301
0.127777
0.138847
0.138866
0.127801
0.127805
0.138762
0.127768
0.790563
0.790361
0.209211
0.138809
0.138893
0.128315
0.127709
0.127805
0.149828
0.127735
0.790343
0.127735
0.128315
0.127856
0.138847
0.790367
0.138836
0.275005
0.791050
0.127838
0.772696
0.191086
0.790336
0.790794
0.790369
0.127801
0.138866
0.791050
0.810369
0.134461
0.127827
0.127789
0.790338
0.791050
0.138847
0.138876
0.129260
0.275005
0.810449
0.138876
0.127735
0.790340
0.790265
0.127749
0.209072
0.127827
0.127846
0.127787
0.127787
0.790305
0.127827
0.128315
0.138858
0.790423
0.790395
0.209226
0.127838
0.789704
0.139892
0.236686
0.790251
0.209011
0.790336
0.209086
0.209011
0.127846
0.810405
0.127838
0.127751
0.810485
0.138824
0.127856
0.127726
0.127735
0.794279
0.127838
0.191086
0.127777
0.127838
0.275005
0.275135
0.138776
0.138847
0.792106
0.127735
0.137201
0.198470
0.138847
0.789729
0.127805
0.127751
0.790340
0.791050
0.790300
0.137201
0.149828
0.138847
0.128481
0.790352
0.127846
0.138876
0.790371
0.127805
0.275005
0.138755
0.127827
0.127735
0.790251
0.791050
0.127777
0.138866
0.127777
0.138858
0.790060
0.810369
0.138847
0.127846
0.789809
0.790435
0.138818
0.127709
0.236686
0.127856
0.127856
0.138876
0.139514
0.127735
0.790285
0.790339
0.790396
0.127789
0.790371
0.127755
0.127816
0.790377
0.127777
0.790371
0.127744
0.790416
0.127846
0.275005
0.789997
0.138847
0.138893
0.790369
0.127789
0.127768
0.127755
0.138847
0.127835
0.790373
0.138876
0.138893
0.129260
0.127789
0.127805
0.138812
0.790278
0.127801
0.791050
0.127827
0.138893
0.127744
0.790183
0.790058
0.790332
0.138755
0.790258
0.128315
0.127755
0.790386
0.810369
0.138816
0.127777
0.127777
0.127709
0.128315
0.127755
0.810405
0.134461
0.127709
0.790366
0.127810
0.127838
0.790348
0.127777
0.127768
0.127777
0.810317
0.209011
0.797899
0.236686
0.806732
0.790364
0.127801
0.134461
0.790305
0.138836
0.275005
0.420768
0.137201
0.138824
0.127755
0.134461
0.275091
0.128315
0.138847
0.127846
0.790416
0.127768
0.138755
0.138816
0.127827
0.127777
0.138876
0.127789
0.138876
0.275005
0.127846
0.790415
0.275005
0.138858
0.138762
0.127709
0.790407
0.127768
0.790364
0.127761
0.138812
0.127709
0.137201
0.790251
0.127838
0.138893
0.138824
0.790418
0.127735
0.128315
0.127846
0.138811
0.275005
0.138847
0.138809
0.138866
0.785318
0.810452
0.803019
0.127744
0.127744
0.790291
0.803019
0.138824
0.127846
0.127761
0.790346
0.127789
0.790376
0.138755
0.275005
0.801409
0.127856
0.127816
0.790445
0.275150
0.138893
0.127709
0.790305
0.138812
0.127777
0.127726
0.128315
0.790416
0.127816
0.127777
0.127856
0.810369
0.127768
0.790251
0.138876
0.127856
0.127744
0.138876
0.127735
0.127777
0.127709
0.138809
0.790328
0.790251
0.790374
0.138824
0.127806
0.138812
0.138858
0.127755
0.138824
0.138811
0.127751
0.127856
0.127856
0.127801
0.149828
0.790383
0.127709
0.127805
0.138858
0.789997
0.789836
0.138847
0.127777
0.790354
0.209086
0.127838
0.127801
0.790377
0.127805
0.790374
0.128315
0.127755
0.138893
0.138812
0.127846
0.128315
0.138847
0.127777
0.790395
0.138847
0.127810
0.128315
0.790150
0.790395
0.138876
0.790251
0.138847
0.790336
0.127846
0.127835
0.149828
0.791050
0.138847
0.790415
0.791050
0.138866
0.790350
0.790354
0.209211
0.791050
0.127750
0.138786
0.127856
0.127787
0.309967
0.138876
0.127835
0.138776
0.127810
0.790251
0.127744
0.149828
0.790398
0.127777
0.127806
0.790366
0.138836
0.127750
0.127806
0.127787
0.127787
0.790337
0.134461
0.127827
0.128315
0.209226
0.790251
0.138893
0.138893
0.127835
0.790348
0.209072
0.278294
0.138858
0.127846
0.128315
0.790265
0.127827
0.127856
0.191086
0.139892
0.275005
0.127846
0.134461
0.138762
0.275005
0.790366
0.138816
0.138818
0.127838
0.236686
0.138866
0.790288
0.127801
0.127805
0.138812
0.127777
0.790360
0.127726
0.127838
0.149828
0.128315
0.127723
0.790423
0.138847
0.127761
0.810369
0.127806
0.138847
0.275052
0.275005
0.127827
0.138893
0.127827
0.138818
0.138847
0.127749
0.127856
0.127816
0.209017
0.139892
0.127856
0.127755
0.791050
0.772696
0.209086
0.138824
0.127838
0.127856
0.420768
0.127856
0.127846
0.138824
0.790794
0.127726
0.138893
0.138893
0.138866
0.127787
0.275005
0.275057
0.138876
0.127735
0.791050
0.128315
0.138876
0.138876
0.791050
0.790316
0.134461
0.790251
0.790016
0.275005
0.791050
0.138866
0.138847
0.127750
0.790361
0.791050
0.191086
0.790338
0.127827
0.209211
0.138876
0.127744
0.790251
0.790374
0.127709
0.138762
0.127777
0.790301
0.127735
0.127709
0.127805
0.138847
0.127768
0.790251
0.127805
0.138809
0.791050
0.127749
0.790367
0.127838
0.790251
0.790191
0.790402
0.138866
0.275042
0.127789
0.138755
0.127789
0.275005
0.275091
0.790251
0.127744
0.127856
0.139892
0.149828
0.138847
0.138824
0.127810
0.138893
0.138847
0.127777
0.790268
0.127806
0.127789
0.790329
0.127787
0.790296
0.275005
0.209072
0.790288
0.138824
0.209011
0.127755
0.138811
0.127856
0.127755
0.138776
0.790296
0.127827
0.127838
0.275005
0.789770
0.138876
0.138807
0.138847
0.127777
0.127777
0.790363
0.127761
0.275030
0.790251
0.790340
0.198470
0.138824
0.134461
0.138866
0.127816
0.127805
0.790342
0.790374
0.790251
0.138836
0.138893
0.790332
0.138893
0.138847
0.138858
0.127838
0.275005
0.127827
0.127751
0.127744
0.127827
0.138824
0.138866
0.128315
0.138876
0.127787
0.790131
0.791050
0.810373
0.127856
0.127726
0.790388
0.138858
0.127709
0.138847
0.127750
0.790374
0.127835
0.138836
0.127777
0.275005
0.138818
0.127755
0.790761
0.791050
0.138876
0.790460
0.127709
0.138816
0.127787
0.790316
0.138893
0.790340
0.790364
0.792106
0.138866
0.128315
0.127735
0.790361
0.149828
0.127726
0.128315
0.790291
0.790285
0.791312
0.138866
0.790354
0.127709
0.790137
0.275005
0.790332
0.127827
0.127749
0.810452
0.128315
0.790251
0.790386
0.138876
0.127827
0.209072
0.127827
0.138755
0.790316
0.138866
0.127856
0.128315
0.790333
0.138836
0.790365
0.127744
0.127816
0.138809
0.127735
0.127755
0.127856
0.790251
0.127856
0.138866
0.138893
0.275005
0.127827
0.790337
0.127755
0.127789
0.138755
0.275066
0.791050
0.138824
0.138755
0.127750
0.789800
0.134461
0.127749
0.138847
0.790761
0.127735
0.127709
0.127856
0.127768
0.127755
0.127709
0.790416
0.790344
0.138847
0.127827
0.138866
0.790853
0.790512
0.127709
0.790268
0.138866
0.138876
0.790265
0.127768
0.137201
0.138847
0.127789
0.127789
0.138847
0.790357
0.127777
0.790340
0.809601
0.127838
0.791050
0.138716
0.127777
0.127777
0.138893
0.128315
0.795379
0.790374
0.236686
0.790344
0.138866
0.127827
0.127755
0.793755
0.138755
0.134461
0.127750
0.198470
0.127744
0.138818
0.790251
0.138847
0.791050
0.127744
0.138876
0.810442
0.127744
0.790366
0.127735
0.198470
0.138836
0.790336
0.127709
0.128315
0.138866
0.127777
0.790352
0.790370
0.138876
0.127777
0.127846
0.275005
0.127777
0.138816
0.198470
0.127750
0.275005
0.127777
0.138786
0.138762
0.209226
0.127768
0.127777
0.127749
0.790333
0.275005
0.790376
0.127744
0.128315
0.790251
0.127777
0.127751
0.127761
0.791050
0.139514
0.138818
0.127709
0.790258
0.138876
0.128315
0.127755
0.127806
0.127835
0.790265
0.127777
0.127827
0.420768
0.127801
0.128315
0.138893
0.127777
0.138755
0.209011
0.127789
0.717230
0.138866
0.138818
0.127827
0.138818
0.127751
0.138876
0.138716
0.127750
0.812296
0.138893
0.127801
0.791050
0.127709
0.791050
0.127755
0.790316
0.127755
0.790777
0.790048
0.127755
0.790126
0.127723
0.790331
0.790336
0.127789
0.791050
0.138847
0.127806
0.138866
0.790388
0.297821
0.127805
0.794279
0.138812
0.138811
0.127777
0.790288
0.138824
0.790416
0.790251
0.138847
0.127846
0.127789
0.127755
0.138866
0.790339
0.790337
0.138776
0.790343
0.790336
0.127827
0.790284
0.790345
0.138809
0.790777
0.790337
0.789974
0.790361
0.790423
0.127751
0.790261
0.127827
0.794279
0.790374
0.139514
0.127827
0.127709
0.790336
0.790278
0.138811
0.138876
0.128315
0.127835
0.127735
0.790251
0.790251
0.138847
0.138762
0.139892
0.275035
0.127749
0.274992
0.127827
0.592301
0.138824
0.138824
0.790316
0.275090
0.138876
0.138847
0.138847
0.790436
0.127751
0.790276
0.138824
0.128481
0.127777
0.138847
0.127801
0.127709
0.138755
0.790357
0.127749
0.127709
0.127838
0.810393
0.138876
0.127805
0.127761
0.138876
0.790374
0.274954
0.127856
0.127750
0.275066
0.138847
0.790338
0.129260
0.790373
0.127723
0.789826
0.138776
0.790251
0.127801
0.810452
0.127735
0.209017
0.127735
0.138876
0.810500
0.790444
0.127735
0.790365
0.790316
0.127709
0.133610
0.420768
0.138876
0.790251
0.138836
0.127787
0.790294
0.127805
0.790434
0.275005
0.790316
0.790280
0.127856
0.127801
0.134461
0.138809
0.138762
0.127789
0.791050
0.790421
0.138824
0.790359
0.127827
0.138762
0.127856
0.127801
0.790251
0.209072
0.134461
0.138824
0.209086
0.127744
0.790251
0.790290
0.128315
0.740061
0.128315
0.127755
0.127827
0.138755
0.138893
0.127735
0.138776
0.127827
0.127750
0.127856
0.790416
0.128315
0.790342
0.127789
0.198470
0.275005
0.209086
0.127777
0.127777
0.127789
0.801409
0.138776
0.138876
0.138866
0.127805
0.127777
0.133610
0.127810
0.790342
0.127801
0.127789
0.791050
0.127777
0.138812
0.789974
0.275005
0.790070
0.127750
0.138811
0.127789
0.128315
0.790376
0.127806
0.127749
0.127709
0.138824
0.127827
0.209211
0.127709
0.138824
0.127755
0.138847
0.139892
0.275005
0.138893
0.791050
0.138776
0.127761
0.209011
0.274970
0.138809
0.138786
0.790388
0.790366
0.127789
0.134461
0.790366
0.138893
0.790373
0.134461
0.209011
0.127709
0.139514
0.790263
0.127810
0.790416
0.810401
0.209226
0.138893
0.138876
0.138866
0.127768
0.127749
0.138847
0.790877
0.790284
0.790301
0.127846
0.138893
0.790301
0.127768
0.806732
0.790265
0.790268
0.790416
0.790329
0.791050
0.127755
0.794279
0.797899
0.792106
0.790314
0.209211
0.138893
0.138847
0.127755
0.810310
0.138876
0.127827
0.790352
0.138893
0.138786
0.127744
0.791050
0.790265
0.127827
0.127751
0.791050
0.127709
0.790251
0.127816
0.127810
0.127789
0.790048
0.790268
0.138876
0.790395
0.790308
0.127723
0.138876
0.127755
0.127801
0.791050
0.138824
0.127751
0.790348
0.810310
0.133610
0.790344
0.128315
0.138866
0.138866
0.790367
0.127723
0.794279
0.790366
0.138893
0.128315
0.127789
0.127838
0.138893
0.127838
0.236686
0.128315
0.810452
0.138847
0.790409
0.138847
0.128481
0.790053
0.791050
0.127838
0.129260
0.138876
0.740061
0.790328
0.790251
0.138786
0.134461
0.138893
0.128315
0.127789
0.127735
0.127777
0.138893
0.127761
0.127755
0.127751
0.209011
0.127856
0.128315
0.138816
0.127749
0.127735
0.127806
0.275005
0.138866
0.790305
0.790285
0.139892
0.592301
0.791050
0.138824
0.209226
0.127755
0.127838
0.138807
0.127726
0.138847
0.138824
0.127846
0.127789
0.127749
0.790445
0.138824
0.791050
0.139892
0.127755
0.138811
0.127755
0.127749
0.138893
0.790352
0.139514
0.138876
0.790016
0.127838
0.127838
0.138866
0.138824
0.138858
0.127827
0.138893
0.128315
0.790407
0.138807
0.127827
0.127801
0.127789
0.127846
0.138893
0.127838
0.138755
0.127856
0.128315
0.138893
0.138847
0.138847
0.792106
0.127856
0.127709
0.191086
0.138876
0.275015
0.790336
0.127751
0.127735
0.209011
0.138809
0.127856
0.127755
0.790407
0.127768
0.790251
0.127735
0.127744
0.191086
0.127735
0.127838
0.138893
0.138824
0.138824
0.127816
0.138866
0.790251
0.790251
0.138816
0.790293
0.127846
0.127761
0.790369
0.127846
0.127805
0.209086
0.315525
0.275005
0.138824
0.138847
0.138847
0.236686
0.127768
0.127816
0.127751
0.127856
0.128315
0.138876
0.790352
0.138876
0.790265
0.275005
0.127749
0.127838
0.127744
0.127777
0.127801
0.127755
0.789803
0.127827
0.134461
0.127856
0.790352
0.275005
0.275005
0.127806
0.127744
0.790314
0.791050
0.138809
0.138847
0.138893
0.209020
0.138847
0.138866
0.783356
0.275005
0.591622
0.275005
0.209017
0.790296
0.790265
0.138893
0.138824
0.795379
0.810387
0.127751
0.127750
0.127789
0.790294
0.138866
0.790294
0.790389
0.791050
0.790374
0.128315
0.790070
0.127750
0.127750
0.127744
0.127838
0.138876
0.790423
0.138818
0.275057
0.191086
0.810442
0.209011
0.138866
0.127789
0.790126
0.790444
0.138847
0.138876
0.803019
0.772696
0.790358
0.149828
0.790374
0.127735
0.127709
0.138762
0.790251
0.791050
0.790336
0.127827
0.138847
0.127709
0.790434
0.127846
0.138858
0.138812
0.790251
0.127805
0.790367
0.740061
0.127856
0.127755
0.127806
0.740061
0.127709
0.138762
0.790317
0.127806
0.127709
0.790444
0.133610
0.128481
0.127768
0.790283
0.275005
0.127787
0.127806
0.790376
0.134461
0.127751
0.127709
0.138811
0.128315
0.790299
0.127856
0.209011
0.127856
0.791050
0.790388
0.275005
0.138816
0.790316
0.802753
0.275005
0.127806
0.790329
0.275005
0.806732
0.790308
0.138776
0.794279
0.127777
0.127846
0.127838
0.138811
0.127805
0.127735
0.792106
0.138876
0.127856
0.138893
0.138893
0.127856
0.790416
0.138811
0.134461
0.138847
0.127777
0.138847
0.138893
0.127835
0.127827
0.275005
0.127768
0.138893
0.790367
0.275005
0.138807
0.138786
0.209226
0.127768
0.790251
0.592301
0.138824
0.139514
0.127768
0.138816
0.810415
0.133610
0.790336
0.127709
0.138893
0.128315
0.795379
0.138866
0.127755
0.127838
0.138809
0.127838
0.790337
0.790347
0.275014
0.127750
0.791050
0.138876
0.129260
0.790251
0.790348
0.138893
0.236686
0.209072
0.138824
0.790263
0.139892
0.127777
0.127709
0.138858
0.137201
0.275014
0.791050
0.127838
0.127787
0.209226
0.275005
0.790376
0.127750
0.138847
0.790402
0.790406
0.127751
0.790036
0.209020
0.127768
0.133610
0.127777
0.790444
0.127827
0.127750
0.236686
0.209020
0.127789
0.127827
0.275005
0.790316
0.138836
0.127827
0.127789
0.138876
0.139514
0.127838
0.789836
0.790374
0.790407
0.275042
0.790336
0.127726
0.138893
0.790352
0.790290
0.127777
0.790251
0.138807
0.128315
0.790373
0.209226
0.127749
0.127751
0.127709
0.138755
0.209011
0.138847
0.138847
0.127751
0.275014
0.127749
0.790336
0.127768
0.138847
0.127789
0.149828
0.790251
0.790316
0.127709
0.275005
0.127805
0.791050
0.138893
0.127777
0.128315
0.790344
0.790261
0.138893
0.127777
0.127789
0.127827
0.127787
0.127856
0.138816
0.790301
0.138893
0.209226
0.138824
0.138858
0.127827
0.127777
0.790191
0.790251
0.275005
0.127856
0.127726
0.790348
0.790388
0.138847
0.790261
0.275005
0.138818
0.790369
0.209017
0.275005
0.790251
0.149828
0.138762
0.790118
0.138847
0.275016
0.790428
0.127750
0.198470
0.138847
0.127789
0.127856
0.127806
0.283963
0.127777
0.127709
0.275005
0.127751
0.127856
0.790329
0.133610
0.128315
0.275014
0.790253
0.127806
0.127755
0.138812
0.127827
0.790345
0.810485
0.790376
0.127805
0.275124
0.209086
0.127751
0.790291
0.138836
0.127735
0.138876
0.138847
0.275005
0.790316
0.138847
0.127750
0.138716
0.138876
0.127777
0.138866
0.790406
0.790284
0.138811
0.127827
0.127744
0.209020
0.790418
0.791312
0.128315
0.138893
0.790308
0.790305
0.275014
0.127805
0.275005
0.740061
0.127827
0.139514
0.138824
0.127827
0.790305
0.138876
0.209211
0.127750
0.790348
0.789704
0.790367
0.127838
0.790361
0.138812
0.127856
0.138866
0.138893
0.139892
0.791050
0.790167
0.790251
0.138818
0.127709
0.127744
0.810387
0.198470
0.790416
0.198470
0.127789
0.127749
0.209011
0.275029
0.127846
0.275150
0.138866
0.138847
0.138811
0.127789
0.717230
0.138812
0.127806
0.127777
0.127827
0.129260
0.790853
0.138847
0.127777
0.791050
0.138811
0.127777
0.275096
0.134461
0.127856
0.790316
0.791050
0.127768
0.128315
0.127806
0.790316
0.810405
0.790363
0.209017
0.790268
0.790329
0.127789
0.790354
0.138818
0.138876
0.790364
0.128315
0.790298
0.127749
0.789717
0.790400
0.275035
0.790444
0.138824
0.138811
0.790316
0.790336
0.138807
0.127735
0.127751
0.790379
0.127735
0.791050
0.138812
0.127777
0.790336
0.127838
0.138858
0.810462
0.138866
0.127755
0.138755
0.791050
0.138836
0.138876
0.791050
0.127787
0.138818
0.127709
0.127755
0.127723
0.138866
0.138811
0.134461
0.790336
0.127709
0.138824
0.138847
0.790367
0.138818
0.127750
0.797720
0.127751
0.209211
0.127777
0.790301
0.127761
0.790263
0.138762
0.810310
0.127805
0.791050
0.127838
0.191086
0.127806
0.127755
0.138893
0.790344
0.138809
0.127787
0.129260
0.138836
0.810429
0.790300
0.790278
0.790053
0.127806
0.138876
0.138811
0.138755
0.275057
0.138866
0.127777
0.790307
0.127749
0.127735
0.127768
0.127846
0.275005
0.138893
0.127750
0.278294
0.138847
0.127777
0.275005
0.127709
0.275005
0.127735
0.138812
0.127750
0.127789
0.138847
0.127735
0.790336
0.127789
0.138866
0.138847
0.794279
0.138866
0.275057
0.790316
0.138811
0.138824
0.275005
0.790294
0.127777
0.134461
0.127801
0.127750
0.790417
0.790436
0.138824
0.790340
0.138755
0.790357
0.127751
0.138893
0.137201
0.138786
0.128481
0.138847
0.127709
0.138824
0.790316
0.138812
0.127810
0.138786
0.275005
0.127751
0.790336
0.592301
0.138847
0.808373
0.127735
0.129260
0.790329
0.789826
0.127856
0.810452
0.127750
0.275005
0.138876
0.127709
0.275029
0.791050
0.127856
0.127735
0.127755
0.315525
0.138824
0.138866
0.138893
0.127838
0.138866
0.139892
0.127768
0.138847
0.127750
0.790334
0.127856
0.802688
0.790300
0.138824
0.128315
0.139892
0.791050
0.790342
0.191086
0.275005
0.138893
0.127726
0.127749
0.138847
0.790393
0.275096
0.791050
0.789968
0.138776
0.133610
0.787121
0.138811
0.127805
0.128315
0.127750
0.209086
0.127801
0.275005
0.138876
0.138847
0.127816
0.790376
0.790416
0.127750
0.127827
0.127856
0.209011
0.138866
0.138876
0.790354
0.127806
0.138762
0.209011
0.138847
0.791050
0.790348
0.138836
0.209020
0.127846
0.127806
0.465681
0.127709
0.149828
0.127789
0.790342
0.790388
0.790348
0.790336
0.127751
0.789661
0.127806
0.790251
0.138816
0.138762
0.127735
0.133610
0.127777
0.810500
0.795379
0.127777
0.127750
0.127789
0.127777
0.790251
0.790251
0.790354
0.790352
0.127846
0.138824
0.138847
0.801409
0.127750
0.138811
0.138876
0.128315
0.138716
0.198470
0.127709
0.127709
0.790396
0.127789
0.127768
0.790316
0.139892
0.127806
0.138776
0.274979
0.790251
0.275005
0.790331
0.127735
0.138876
0.275005
0.138824
0.790347
0.138847
0.790364
0.138847
0.790402
0.791050
0.127749
0.790316
0.127749
0.127789
0.127751
0.127856
0.138824
0.127810
0.128315
0.127749
0.138836
0.789900
0.138893
0.275005
0.790364
0.127768
0.138809
0.790761
0.138893
0.127846
0.790336
0.209020
0.790370
0.138876
0.790386
0.790317
0.209226
0.591622
0.137201
0.127777
0.790276
0.127750
0.127750
0.740061
0.790379
0.127856
0.808514
0.134461
0.127805
0.138893
0.138847
0.138847
0.133610
0.127751
0.275005
0.127744
0.127735
0.127777
0.275005
0.138847
0.790305
0.790373
0.138811
0.127827
0.137201
0.275005
0.808514
0.128315
0.790301
0.127789
0.790308
0.791050
0.127805
0.790352
0.790299
0.790251
0.127768
0.138858
0.127750
0.127827
0.790396
0.127709
0.127827
0.790406
0.138818
0.790402
0.790374
0.790251
0.127755
0.791312
0.128315
0.138847
0.790298
0.790369
0.236686
0.789826
0.790409
0.127709
0.128315
0.790367
0.127805
0.138847
0.127810
0.127805
0.127723
0.789817
0.209011
0.127827
0.138893
0.790761
0.127709
0.127816
0.791050
0.275005
0.127768
0.127777
0.274954
0.275005
0.127749
0.138866
0.127744
0.791050
0.127856
0.138893
0.138866
0.790359
0.790379
0.790416
0.790416
0.209017
0.127838
0.790370
0.209011
0.127749
0.127835
0.127827
0.790563
0.790374
0.138836
0.127838
0.127744
0.275005
0.791050
0.790283
0.790354
0.138836
0.790150
0.127835
0.795379
0.790139
0.209211
0.791050
0.127735
0.138876
0.129260
0.791050
0.128315
0.127750
0.790236
0.127856
0.790060
0.793755
0.809601
0.127801
0.129260
0.789968
0.789920
0.127777
0.138893
0.128315
0.138847
0.790444
0.209226
0.127838
0.810450
0.275005
0.791050
0.810405
0.128481
0.790364
0.127846
0.138876
0.134461
0.127835
0.127789
0.138786
0.138893
0.138893
0.127749
0.790303
0.139514
0.127789
0.209020
0.790440
0.139514
0.790353
0.138762
0.791319
0.138876
0.127806
0.138866
0.127768
0.127846
0.138876
0.127777
0.138776
0.138847
0.790367
0.790316
0.790118
0.138866
0.790336
0.275005
0.138847
0.138866
0.139514
0.149828
0.790316
0.209011
0.790251
0.790316
0.128481
0.790416
0.138847
0.795379
0.128315
0.790445
0.127846
0.138893
0.138866
0.275005
0.127751
0.127801
0.790382
0.127835
0.127805
0.790367
0.790296
0.138847
0.127744
0.791050
0.127838
0.274992
0.127827
0.138807
0.127810
0.127856
0.138893
0.810373
0.790435
0.591622
0.127801
0.138858
0.275020
0.127856
0.127723
0.790374
0.138866
0.138811
0.134461
0.810500
0.138836
0.128315
0.138755
0.465681
0.127749
0.790307
0.790251
0.138824
0.127801
0.127735
0.138811
0.127789
0.790396
0.127750
0.127726
0.791050
0.790345
0.138893
0.127846
0.127768
0.790369
0.134461
0.592301
0.127838
0.127827
0.138866
0.127846
0.789645
0.790400
0.790316
0.789836
0.127744
0.790251
0.127846
0.274954
0.209086
0.790436
0.138824
0.138847
0.127827
0.790283
0.275005
0.810393
0.790416
0.790426
0.127751
0.789833
0.790316
0.127751
0.592301
0.790199
0.138811
0.275005
0.138811
0.127827
0.790268
0.127709
0.138847
0.134461
0.209226
0.127801
0.127856
0.127777
0.127749
0.138893
0.791050
0.790251
0.138893
0.138866
0.506740
0.138824
0.138847
0.789974
0.127838
0.790416
0.592301
0.790416
0.127777
0.128315
0.127805
0.274954
0.790294
0.790251
0.790380
0.138762
0.810441
0.790379
0.127777
0.790265
0.275075
0.138866
0.127749
0.127838
0.128315
0.127709
0.790366
0.127761
0.790285
0.236686
0.128315
0.127805
0.127835
0.275005
0.127735
0.465681
0.127806
0.275005
0.790445
0.127801
0.790308
0.191086
0.127755
0.138812
0.790374
0.790345
0.127755
0.138824
0.790112
0.275049
0.127777
0.138876
0.138812
0.127777
0.209020
0.791050
0.138847
0.138866
0.791312
0.127838
0.138716
0.789833
0.127749
0.138807
0.790445
0.209211
0.138866
0.127838
0.127749
0.275005
0.127749
0.127838
0.127838
0.127787
0.790291
0.791050
0.465681
0.127709
0.138786
0.790268
0.790251
0.128315
0.138893
0.138893
0.128481
0.127768
0.790366
0.138824
0.127777
0.209017
0.127806
0.127838
0.127827
0.127777
0.138858
0.127726
0.810317
0.138847
0.138824
0.791050
0.790291
0.275005
0.138847
0.127787
0.127838
0.127777
0.790374
0.138824
0.790315
0.127846
0.127835
0.592301
0.138776
0.127709
0.127846
0.127827
0.127709
0.137201
0.127787
0.275005
0.790370
0.127777
0.138866
0.790336
0.138858
0.138818
0.209226
0.790360
0.129260
0.127856
0.790284
0.275005
0.138824
0.138893
0.127805
0.127709
0.236686
0.138893
0.789645
0.274972
0.138847
0.138866
0.275158
0.790406
0.789645
0.138816
0.127838
0.790308
0.127755
0.790288
0.127805
0.790366
0.138824
0.790294
0.790367
0.772696
0.138876
0.191086
0.127838
0.138876
0.138812
0.275005
0.127856
0.740061
0.138893
0.138893
0.790251
0.138866
0.127827
0.127805
0.209226
0.127816
0.127838
0.127846
0.275005
0.138716
0.127735
0.209211
0.209211
0.127846
0.275005
0.790223
0.127749
0.790251
0.209011
0.138858
0.127846
0.209011
0.790395
0.810267
0.790761
0.138847
0.127789
0.127709
0.810452
0.236686
0.127838
0.127735
0.138755
0.127709
0.790305
0.127768
0.138847
0.127787
0.209020
0.128315
0.138824
0.127777
0.198470
0.138786
0.810310
0.790321
0.138876
0.127777
0.790285
0.134461
0.138776
0.127789
0.127709
0.138812
0.791050
0.791050
0.790367
0.138866
0.127777
0.127838
0.790386
0.138866
0.138893
0.790251
0.138836
0.796817
0.127749
0.138807
0.790336
0.138866
0.790285
0.127768
0.790363
0.138866
0.134461
0.127749
0.127789
0.127709
0.127787
0.790376
0.138818
0.790305
0.138847
0.127787
0.138866
0.790957
0.127777
0.127735
0.790292
0.275005
0.128315
0.790251
0.127709
0.127856
0.138776
0.127846
0.127787
0.790265
0.800704
0.127755
0.127768
0.127744
0.791050
0.275005
0.790386
0.138847
0.127789
0.790409
0.138716
0.127761
0.790251
0.789813
0.791050
0.138876
0.127801
0.127801
0.138893
0.795379
0.138893
0.790345
0.127709
0.790251
0.127805
0.138876
0.138811
0.127827
0.139514
0.127846
0.127789
0.127755
0.137201
0.790444
0.134461
0.138866
0.127846
0.790299
0.127810
0.791050
0.128315
0.127735
0.790354
0.790370
0.790261
0.790379
0.138893
0.740061
0.791050
0.138776
0.790317
0.198470
0.127789
0.139892
0.127801
0.134461
0.127735
0.791050
0.127827
0.138818
0.138807
0.790291
0.790340
0.790199
0.128481
0.127709
0.138818
0.138807
0.138836
0.128481
0.127750
0.127744
0.790415
0.128315
0.791050
0.138786
0.790181
0.127709
0.209011
0.275023
0.139514
0.790338
0.127835
0.790251
0.790258
0.127755
0.790348
0.138807
0.128315
0.790334
0.209020
0.198470
0.138847
0.790251
0.129260
0.127709
0.127755
0.127777
0.275005
0.127789
0.209211
0.138824
0.127723
0.790373
0.790293
0.127838
0.790251
0.790337
0.127777
0.138824
0.138816
0.138866
0.791050
0.315525
0.138807
0.127801
0.138755
0.127749
0.128481
0.790379
0.138866
0.127777
0.149828
0.138866
0.127751
0.127856
0.278294
0.790316
0.797720
0.275005
0.810485
0.127801
0.127755
0.138876
0.127838
0.127856
0.127755
0.790423
0.275005
0.420768
0.810500
0.790329
0.128315
0.127846
0.790316
0.790299
0.275116
0.790380
0.127810
0.149828
0.790374
0.138811
0.127856
0.591622
0.790251
0.791050
0.138776
0.138807
0.127709
0.790103
0.127827
0.138893
0.128315
0.138876
0.127744
0.127768
0.138847
0.128315
0.129260
0.138893
0.138876
0.127789
0.127744
0.772696
0.127856
0.790317
0.138824
0.149828
0.790348
0.138876
0.790365
0.795379
0.127805
0.138876
0.740061
0.127709
0.772696
0.127735
0.127777
0.138836
0.127735
0.790336
0.127755
0.127801
0.209086
0.198470
0.138809
0.275005
0.791319
0.127856
0.790416
0.139514
0.127735
0.138836
0.127846
0.790298
0.138847
0.790436
0.790303
0.275005
0.138762
0.138811
0.790251
0.790316
0.790370
0.127735
0.138818
0.127856
0.138876
0.127787
0.127709
0.127744
0.198470
0.127709
0.127744
0.138836
0.127838
0.275005
0.127846
0.127846
0.127805
0.138858
0.790242
0.275030
0.134461
0.138866
0.790374
0.138824
0.790283
0.127801
0.127789
0.127846
0.275005
0.138866
0.127789
0.127838
0.792106
0.138847
0.127787
0.275005
0.127709
0.790359
0.790316
0.127827
0.810373
0.790376
0.138858
0.134461
0.127749
0.127856
0.127735
0.801409
0.138893
0.138893
0.128315
0.790316
0.138824
0.127835
0.127709
0.127789
0.138858
0.790207
0.790374
0.790284
0.127838
0.127735
0.198470
0.138866
0.138876
0.138866
0.790714
0.790367
0.717230
0.790137
0.191086
0.138847
0.138876
0.275095
0.138824
0.127709
0.127806
0.127750
0.138776
0.791050
0.127755
0.138866
0.278294
0.127723
0.127856
0.138847
0.790377
0.275005
0.791050
0.127750
0.128481
0.790396
0.209011
0.127816
0.275005
0.128315
0.790348
0.138866
0.138893
0.149828
0.138847
0.791050
0.790348
0.803019
0.138776
0.127806
0.138847
0.127777
0.790337
0.127816
0.275005
0.420768
0.790251
0.127709
0.420768
0.275005
0.127761
0.790288
0.790374
0.127723
0.138755
0.791050
0.128315
0.127768
0.138812
0.790308
0.127827
0.791050
0.138847
0.127789
0.128315
0.236686
0.790365
0.127744
0.790315
0.127805
0.138866
0.127838
0.138876
0.127805
0.138836
0.138847
0.138847
0.127789
0.127755
0.138876
0.275158
0.127789
0.129260
0.127835
0.127777
0.127709
0.790405
0.127709
0.791050
0.790107
0.127856
0.137201
0.790084
0.791050
0.790361
0.791050
0.790355
0.127768
0.791050
0.790417
0.138876
0.138876
0.127749
0.127768
0.127735
0.138816
0.790353
0.138866
0.790340
0.789968
0.127709
0.790338
0.127709
0.790374
0.275005
0.275005
0.127709
0.138847
0.127768
0.127838
0.790169
0.127755
0.138893
0.275076
0.806732
0.139514
0.127777
0.127749
0.138807
0.790366
0.127723
0.790333
0.138847
0.138866
0.127777
0.127816
0.127856
0.127777
0.127777
0.127709
0.127856
0.790563
0.198470
0.138818
0.790416
0.127827
0.127750
0.790761
0.127723
0.127768
0.138847
0.275005
0.790305
0.790316
0.209226
0.127806
0.127744
0.790361
0.139514
0.209072
0.127846
0.127749
0.791050
0.808373
0.127805
0.275057
0.790265
0.127856
0.790317
0.790251
0.138858
0.138762
0.138847
0.790337
0.127846
0.127846
0.127777
0.790354
0.138811
0.790251
0.803019
0.129260
0.789923
0.209017
0.791050
0.790040
0.138876
0.420768
0.790207
0.127856
0.790336
0.127723
0.127709
0.790370
0.790374
0.275091
0.790268
0.274947
0.134461
0.128315
0.790379
0.127749
0.790417
0.127777
0.127810
0.138776
0.790261
0.127835
0.138876
0.275097
0.209017
0.127777
0.127755
0.138762
0.138866
0.127787
0.133610
0.138824
0.127777
0.127856
0.127856
0.209226
0.191086
0.127787
0.127789
0.138893
0.790380
0.790376
0.138893
0.791050
0.127777
0.127805
0.138847
0.127856
0.138716
0.791050
0.790251
0.790126
0.138836
0.127744
0.138893
0.138811
0.138866
0.127838
0.138876
0.127827
0.209017
0.127806
0.790348
0.127744
0.149828
0.127777
0.789817
0.790313
0.128315
0.127755
0.127749
0.128315
0.138812
0.127723
0.138866
0.127856
0.275005
0.127755
0.790416
0.791050
0.810449
0.127749
0.138876
0.134461
0.790340
0.790303
0.127856
0.791050
0.127735
0.790296
0.209020
0.127838
0.138858
0.790268
0.127789
0.127735
0.138876
0.127838
0.138812
0.790305
0.790251
0.127835
0.138807
0.138847
0.790329
0.138893
0.236686
0.209086
0.127838
0.790348
0.127827
0.127749
0.137201
0.127827
0.791050
0.127827
0.138811
0.790251
0.127768
0.790364
0.138807
0.127805
0.138866
0.138816
0.790251
0.209226
0.790236
0.127777
0.127749
0.790251
0.129260
0.138847
0.138847
0.127709
0.790352
0.127768
0.209072
0.592301
0.127835
0.127856
0.138824
0.127856
0.127838
0.127827
0.127709
0.127835
0.127835
0.149828
0.127846
0.127777
0.138893
0.127856
0.127749
0.127789
0.138776
0.138893
0.790416
0.128315
0.127838
0.127768
0.790253
0.138762
0.127789
0.275005
0.138876
0.127735
0.274968
0.127827
0.127709
0.128315
0.138866
0.127856
0.127768
0.790316
0.127755
0.790316
0.789920
0.790374
0.790354
0.127777
0.127856
0.790251
0.127846
0.127856
0.790251
0.127810
0.790361
0.790265
0.128481
0.127709
0.127735
0.810415
0.138786
0.127838
0.792106
0.790354
0.127789
0.138893
0.127856
0.138809
0.133610
0.127806
0.420768
0.127735
0.127777
0.127838
0.275124
0.138811
0.127846
0.790436
0.275005
0.127805
0.129260
0.790352
0.790389
0.127805
0.127801
0.127846
0.127709
0.275095
0.790348
0.138816
0.138866
0.127816
0.138876
0.127768
0.138847
0.275005
0.790379
0.133610
0.138847
0.138824
0.127735
0.138866
0.790421
0.790345
0.236686
0.810405
0.556764
0.790265
0.790367
0.127789
0.137201
0.127777
0.127846
0.127755
0.138866
0.127726
0.790314
0.127838
0.138807
0.790341
0.790251
0.127805
0.790353
0.127846
0.127846
0.138824
0.790305
0.790336
0.209226
0.138876
0.127735
0.127735
0.790265
0.139514
0.127777
0.790416
0.138847
0.138893
0.138824
0.127856
0.127838
0.138876
0.129260
0.790339
0.138824
0.138866
0.790299
0.127801
0.138755
0.791050
0.127856
0.209020
0.127750
0.127805
0.790284
0.127856
0.790353
0.127726
0.127755
0.198470
0.127735
0.790311
0.275135
0.127750
0.275005
0.790352
0.790265
0.138824
0.138876
0.789923
0.790369
0.790369
0.138816
0.127856
0.791050
0.127810
0.127751
0.790376
0.790338
0.138809
0.127846
0.127709
0.138807
0.127768
0.134461
0.790336
0.138866
0.790251
0.790357
0.138866
0.127835
0.138847
0.790329
0.810313
0.789923
0.790251
0.138786
0.127723
0.138812
0.138824
0.790251
0.790316
0.127755
0.127856
0.138876
0.790305
0.127735
0.790251
0.127810
0.127846
0.127856
0.127805
0.127789
0.138866
0.127789
0.138847
0.127838
0.138755
0.127827
0.138818
0.138811
0.790403
0.127735
0.789704
0.138876
0.275005
0.127827
0.138876
0.790308
0.127838
0.792106
0.127827
0.127835
0.790308
0.790251
0.138893
0.127789
0.139892
0.790258
0.128315
0.790251
0.127856
0.127838
0.790402
0.128315
0.138893
0.209020
0.127810
0.790316
0.812296
0.138866
0.127723
0.127789
0.420768
0.127755
0.127801
0.138876
0.127789
0.790251
0.790366
0.127755
0.138847
0.138811
0.791050
0.127726
0.138847
0.790406
0.138824
0.790300
0.127750
0.149828
0.128315
0.127744
0.591622
0.127709
0.138818
0.127709
0.789813
0.791050
0.127816
0.138762
0.789645
0.790139
0.275035
0.127755
0.138809
0.127735
0.127709
0.127827
0.790300
0.139514
0.127846
0.790317
0.127735
0.128315
0.275005
0.791050
0.127846
0.792106
0.790316
0.127789
0.790339
0.127750
0.127709
0.790316
0.127709
0.138818
0.128481
0.133610
0.127856
0.790245
0.790329
0.138809
0.127749
0.127709
0.127709
0.275005
0.127805
0.138876
0.127735
0.138811
0.138847
0.275005
0.127805
0.127838
0.790367
0.134461
0.127761
0.138811
0.138776
0.134461
0.127744
0.139514
0.138847
0.127777
0.209017
0.790304
0.790421
0.127777
0.797720
0.127744
0.209226
0.138816
0.790251
0.810387
0.127838
0.127838
0.138847
0.802688
0.127846
0.790407
0.275005
0.128315
0.790300
0.127726
0.802753
0.275005
0.790070
0.790374
0.129260
0.790336
0.209211
0.127856
0.138847
0.790316
0.138816
0.138858
0.209011
0.138866
0.803019
0.138847
0.127768
0.138812
0.127789
0.790332
0.810429
0.138847
0.138762
0.127723
0.127816
0.128315
0.138824
0.138876
0.790366
0.138816
0.790418
0.127846
0.209011
0.127768
0.808373
0.790374
0.127750
0.138818
0.127838
0.592301
0.138866
0.127827
0.127709
0.790315
0.127709
0.138876
0.127856
0.138824
0.790367
0.127755
0.209011
0.127827
0.128315
0.139514
0.138876
0.790334
0.790367
0.127789
0.127827
0.790263
0.793755
0.127749
0.790284
0.138786
0.127735
0.792106
0.127755
0.138809
0.275005
0.127735
0.138809
0.790251
0.138847
0.790316
0.138866
0.790327
0.127709
0.789968
0.790316
0.209020
0.133610
0.127735
0.789837
0.127827
0.138866
0.138847
0.275005
0.127750
0.790251
0.790048
0.138807
0.138847
0.127726
0.209020
0.137201
0.790316
0.772696
0.127846
0.275090
0.209072
0.138847
0.315525
0.790373
0.138776
0.790301
0.138847
0.138811
0.127838
0.138893
0.138824
0.790316
0.740061
0.127735
0.127838
0.127806
0.127838
0.133610
0.138755
0.275005
0.790380
0.127846
0.128315
0.790263
0.275005
0.138816
0.128481
0.275005
0.128315
0.209011
0.198470
0.274972
0.138858
0.138893
0.127735
0.592301
0.138836
0.127856
0.127810
0.790336
0.127827
0.127838
0.198470
0.127827
0.790058
0.138893
0.127709
0.127806
0.128481
0.128315
0.790396
0.790265
0.288894
0.127735
0.127777
0.134461
0.810441
0.138876
0.790354
0.127709
0.790338
0.790327
0.127856
0.790350
0.138812
0.138876
0.127806
0.790367
0.790265
0.275005
0.209211
0.790436
0.139892
0.139892
0.127777
0.127810
0.127787
0.790280
0.127768
0.138824
0.127749
0.790163
0.790373
0.791050
0.138893
0.138866
0.790336
0.127856
0.275005
0.209011
0.209020
0.138824
0.127846
0.139892
0.790400
0.740061
0.127856
0.127789
0.127726
0.209211
0.138893
0.275005
0.138776
0.812296
0.127751
0.127801
0.790316
0.138893
0.127816
0.128315
0.420768
0.138847
0.127789
0.209211
0.127816
0.209017
0.209020
0.127827
0.134461
0.790251
0.275005
0.128315
0.209020
0.790361
0.127755
0.128315
0.139892
0.127856
0.790167
0.790353
0.790329
0.127744
0.127777
0.127768
0.127751
0.127735
0.127806
0.790354
0.138893
0.127768
0.790314
0.138811
0.138876
0.138755
0.209072
0.138893
0.127709
0.790251
0.149828
0.127735
0.127835
0.790251
0.138876
0.127735
0.790357
0.127789
0.790402
0.138836
0.810373
0.191086
0.791050
0.127838
0.127751
0.127827
0.790350
0.138876
0.138893
0.127856
0.127777
0.138866
0.790416
0.138818
0.138866
0.127810
0.790416
0.138847
0.138824
0.128315
0.127838
0.127827
0.790423
0.138847
0.790379
0.810441
0.138876
0.138847
0.138876
0.790284
0.138755
0.128481
0.127749
0.127856
0.138755
0.209226
0.138755
0.790365
0.138755
0.790563
0.138762
0.127806
0.127787
0.127838
0.138847
0.790379
0.789796
0.791050
0.127735
0.138847
0.790308
0.138824
0.790376
0.790251
0.138876
0.790301
0.138809
0.134461
0.789837
0.275005
0.138858
0.790314
0.138755
0.791050
0.740061
0.275005
0.209020
0.810500
0.127749
0.209086
0.790058
0.790137
0.790416
0.128315
0.139892
0.275005
0.138811
0.138876
0.138809
0.794279
0.138876
0.127816
0.139892
0.127789
0.138847
0.138824
0.128315
0.127789
0.790251
0.127749
0.790296
0.198470
0.138858
0.128315
0.127805
0.789900
0.127709
0.138847
0.138716
0.127856
0.127805
0.790251
0.138866
0.127846
0.138755
0.138893
0.790340
0.138818
0.127846
0.127827
0.127816
0.790361
0.127755
0.790316
0.127789
0.127777
0.138858
0.127787
0.127838
0.790163
0.790303
0.127768
0.790283
0.275005
0.790129
0.127709
0.790251
0.134461
0.138893
0.138847
0.790374
0.274992
0.791050
0.236686
0.138818
0.139514
0.790405
0.138786
0.127806
0.790308
0.138762
0.790416
0.127751
0.209226
0.275005
0.127789
0.790348
0.275005
0.127806
0.127827
0.138893
0.790376
0.790296
0.209072
0.790342
0.127709
0.790305
0.127750
0.127709
0.790251
0.138847
0.127856
0.138776
0.149828
0.138866
0.127827
0.790400
0.138866
0.127735
0.127777
0.138755
0.138847
0.127838
0.790361
0.127735
0.127801
0.138876
0.127709
0.138847
0.127750
0.138893
0.127755
0.790292
0.127709
0.127805
0.139514
0.127801
0.127709
0.138893
0.138893
0.191086
0.275005
0.127827
0.790406
0.127805
0.127750
0.127806
0.138824
0.127827
0.790337
0.138807
0.790305
0.790338
0.138755
0.790181
0.127789
0.138866
0.138811
0.790242
0.790308
0.138847
0.790416
0.127749
0.138876
0.791050
0.127750
0.790512
0.790396
0.127755
0.133610
0.127735
0.209086
0.127856
0.127856
0.127838
0.138776
0.127827
0.790428
0.790339
0.797720
0.790373
0.209020
0.790350
0.128315
0.138847
0.790383
0.275052
0.127801
0.127755
0.790137
0.209072
0.127777
0.127777
0.127789
0.127789
0.138818
0.275005
0.127777
0.138824
0.127735
0.127744
0.138876
0.127777
0.138847
0.209226
0.791312
0.790348
0.139892
0.138876
0.191086
0.138847
0.138893
0.790423
0.138893
0.127787
0.138811
0.138812
0.138847
0.790444
0.127805
0.127789
0.138876
0.790376
0.138876
0.138811
0.138876
0.138824
0.127838
0.790371
0.790236
0.792106
0.790364
0.138755
0.790268
0.138811
0.790251
0.790222
0.790423
0.127735
0.127816
0.138812
0.138836
0.127856
0.138893
0.127810
0.790053
0.209017
0.275057
0.127755
0.138893
0.420768
0.138876
0.127749
0.138811
0.128315
0.791050
0.789974
0.791050
0.127750
0.138893
0.790301
0.790316
0.790285
0.127735
0.420768
0.275005
0.137201
0.138876
0.127789
0.790301
0.127789
0.127835
0.138716
0.127838
0.790352
0.127768
0.275005
0.790385
0.790761
0.138893
0.819102
0.127827
0.275005
0.127789
0.127838
0.138876
0.127827
0.790374
0.790299
0.138893
0.138812
0.790385
0.797899
0.790336
0.790070
0.790291
0.127755
0.790305
0.127789
0.209086
0.138776
0.790139
0.127789
0.138776
0.138893
0.138836
0.275005
0.127789
0.209211
0.790405
0.127768
0.275005
0.209226
0.791050
0.790416
0.138893
0.127838
0.133610
0.127787
0.790291
0.790366
0.138876
0.790280
0.138847
0.138847
0.275005
0.275005
0.128315
0.790329
0.138809
0.209072
0.790301
0.790336
0.127805
0.138866
0.790316
0.790396
0.790423
0.789800
0.138847
0.275005
0.790396
0.127750
0.138858
0.127856
0.127735
0.127709
0.149828
0.275005
0.790416
0.810313
0.790316
0.790296
0.127726
0.128315
0.790316
0.127801
0.127789
0.127856
0.275005
0.138866
0.275005
0.127838
0.790126
0.127777
0.127751
0.138716
0.790339
0.790251
0.127846
0.127744
0.127827
0.138876
0.127751
0.138876
0.138876
0.127750
0.138836
0.790361
0.128315
0.127751
0.127835
0.127856
0.138847
0.127777
0.127789
0.138816
0.127805
0.790291
0.790360
0.127735
0.790445
0.138876
0.127856
0.138776
0.790251
0.127846
0.127749
0.790348
0.790405
0.127789
0.138893
0.127735
0.127805
0.128315
0.790371
0.127827
0.127856
0.790376
0.138762
0.138847
0.275073
0.138847
0.127846
0.138786
0.129260
0.127751
0.790300
0.790416
0.275005
0.790377
0.127856
0.138809
0.127835
0.127838
0.198470
0.790348
0.127709
0.137201
0.790316
0.352832
0.790300
0.138847
0.138755
0.790251
0.138876
0.789900
0.791050
0.791319
0.275005
0.795379
0.127827
0.790877
0.138811
0.810387
0.138811
0.127827
0.138816
0.127735
0.236686
0.790305
0.138816
0.790396
0.138811
0.127777
0.138807
0.138893
0.127735
0.138858
0.138824
0.127777
0.790436
0.127856
0.138858
0.810500
0.127827
0.138818
0.790284
0.127838
0.134461
0.127749
0.127846
0.127789
0.127816
0.127838
0.793755
0.191086
0.790374
0.275005
0.790377
0.127805
0.791050
0.275021
0.138847
0.127726
0.138811
0.127810
0.790342
0.127835
0.127755
0.138847
0.127856
0.592301
0.138816
0.790385
0.790251
0.790251
0.810415
0.138807
0.138866
0.127735
0.274961
0.127709
0.790316
0.790402
0.138809
0.138847
0.138876
0.791050
0.138755
0.127744
0.790376
0.127750
0.791050
0.138876
0.127789
0.790291
0.790373
0.803019
0.138876
0.127846
0.275091
0.209011
0.209226
0.137201
0.275005
0.420768
0.274981
0.138824
0.138893
0.592301
0.127838
0.127749
0.127789
0.127751
0.127735
0.138876
0.127846
0.127777
0.790374
0.138824
0.127709
0.138776
0.127735
0.790336
0.127744
0.127755
0.138818
0.138809
0.127810
0.789796
0.138876
0.810441
0.127735
0.127744
0.127789
0.127709
0.127735
0.790251
0.790340
0.789939
0.138876
0.127755
0.138866
0.790263
0.790379
0.127846
0.790298
0.790439
0.791050
0.138866
0.127827
0.127846
0.810448
0.138876
0.790416
0.275005
0.137201
0.209011
0.790338
0.790361
0.789806
0.127846
0.791312
0.127777
0.209226
0.275005
0.138818
0.127856
0.127789
0.138811
0.790714
0.791050
0.127789
0.790341
0.138716
0.790367
0.790291
0.138893
0.790361
0.138876
0.127744
0.790336
0.556764
0.138866
0.127856
0.790251
0.127777
0.138866
0.138776
0.127827
0.790363
0.810310
0.790344
0.138809
0.127749
0.790336
0.127805
0.134461
0.128315
0.128315
0.127768
0.138755
0.127801
0.127755
0.138762
0.792255
0.790261
0.127846
0.139892
0.138812
0.275005
0.138866
0.275014
0.275005
0.790251
0.138858
0.127787
0.138836
0.209226
0.790251
0.790316
0.127827
0.127835
0.138762
0.790329
0.127777
0.127761
0.127749
0.138847
0.138818
0.138866
0.275023
0.127777
0.138847
0.127838
0.139892
0.139892
0.790126
0.129260
0.209226
0.138858
0.790360
0.127806
0.127709
0.127838
0.127846
0.275005
0.791050
0.127787
0.790315
0.127787
0.127801
0.794279
0.127806
0.127827
0.790366
0.127709
0.138847
0.790371
0.138876
0.138893
0.127789
0.128315
0.127856
0.138824
0.810310
0.127805
0.127846
0.138893
0.127789
0.790293
0.138824
0.802753
0.138893
0.138807
0.127856
0.791050
0.790382
0.127709
0.138847
0.790416
0.209020
0.138818
0.138847
0.790251
0.127805
0.790251
0.127805
0.127751
0.772696
0.790290
0.127838
0.127777
0.127806
0.138893
0.127827
0.790301
0.138812
0.138876
0.127816
0.139514
0.138847
0.138762
0.127846
0.790314
0.128315
0.209211
0.127777
0.127709
0.740061
0.138812
0.138876
0.138847
0.790370
0.209017
0.127789
0.789803
0.790359
0.138812
0.127856
0.275005
0.790251
0.790563
0.790367
0.793755
0.127806
0.127838
0.127709
0.791050
0.138776
0.790284
0.127789
0.138866
0.791050
0.127801
0.790291
0.275149
0.127810
0.127789
0.127835
0.128315
0.127735
0.127838
0.790316
0.127777
0.790416
0.790409
0.127777
0.127827
0.138847
0.138866
0.127777
0.138876
0.127726
0.790268
0.790316
0.790265
0.127827
0.138755
0.790251
0.138893
0.420768
0.790305
0.127749
0.127806
0.790376
0.128315
0.127726
0.138847
0.127777
0.127761
0.465681
0.138876
0.790853
0.127777
0.127709
0.790251
0.127751
0.790199
0.138847
0.127709
0.128315
0.138866
0.128315
0.138816
0.127838
0.138876
0.138847
0.127846
0.138847
0.790316
0.134461
0.127777
0.276387
0.127806
0.127761
0.127827
0.127827
0.790361
0.791050
0.127838
0.790421
0.138812
0.127750
0.127726
0.127777
0.127749
0.127777
0.137201
0.810452
0.191086
0.138866
0.275005
0.138716
0.138893
0.127805
0.127846
0.138893
0.127751
0.790300
0.127777
0.127744
0.138847
0.275001
0.127768
0.717230
0.790345
0.790300
0.789997
0.127768
0.790236
0.790036
0.127838
0.138847
0.138847
0.717230
0.138876
0.128315
0.134461
0.127789
0.127805
0.138776
0.138893
0.127768
0.127789
0.127735
0.138776
0.138876
0.127749
0.790296
0.127806
0.138716
0.127838
0.138847
0.809601
0.138847
0.138866
0.127709
0.791050
0.138876
0.790386
0.127777
0.790291
0.127789
0.127838
0.127777
0.138818
0.127755
0.138824
0.790358
0.127838
0.138893
0.138866
0.138858
0.790300
0.772696
0.127726
0.138847
0.138836
0.128481
0.127777
0.138811
0.127726
0.127750
0.790352
0.790251
0.790402
0.127768
0.209072
0.138876
0.790316
0.127838
0.138876
0.790251
0.138876
0.791050
0.790361
0.137201
0.138809
0.791050
0.790370
0.791050
0.127801
0.138847
0.209211
0.138866
0.138824
0.789968
0.127846
0.790374
0.138866
0.797720
0.138847
0.128481
0.138847
0.790327
0.790342
0.127750
0.127827
0.790352
0.127856
0.810393
0.128315
0.127768
0.127846
0.138893
0.790336
0.138816
0.791319
0.791050
0.420768
0.790386
0.138893
0.139514
0.127856
0.790373
0.138858
0.127744
0.790300
0.127801
0.138811
0.134461
0.790338
0.134461
0.127709
0.138847
0.790251
0.810452
0.790300
0.198470
0.789743
0.791050
0.275005
0.128481
0.790367
0.127723
0.790354
0.127777
0.790265
0.127827
0.127777
0.138811
0.138836
0.127835
0.127856
0.209086
0.138876
0.127749
0.139514
0.790359
0.790268
0.790405
0.138847
0.819102
0.138755
0.127801
0.127709
0.127838
0.138876
0.209017
0.127755
0.275005
0.790305
0.810485
0.127838
0.127816
0.789974
0.790361
0.127789
0.138866
0.127805
0.127856
0.127787
0.138836
0.276671
0.127827
0.209011
0.127789
0.138762
0.209086
0.717230
0.790283
0.138876
0.138866
0.790370
0.138836
0.138866
0.127735
0.133610
0.790251
0.138847
0.127856
0.127789
0.209020
0.127856
0.127810
0.138812
0.795379
0.790344
0.138876
0.790329
0.127723
0.127755
0.420768
0.127806
0.790285
0.127805
0.139892
0.790299
0.790294
0.139892
0.128315
0.138836
0.127768
0.138876
0.790340
0.790355
0.127750
0.127755
0.127856
0.791050
0.127735
0.138866
0.138866
0.149828
0.275005
0.127751
0.127856
0.790251
0.138824
0.790327
0.128315
0.127789
0.209020
0.790350
0.127805
0.127856
0.127777
0.797720
0.138812
0.127777
0.790352
0.127801
0.138876
0.127827
0.129260
0.790283
0.149828
0.127749
0.149828
0.138866
0.790374
0.149828
0.127777
0.127846
0.138847
0.127846
0.127838
0.127749
0.127709
0.127827
0.127777
0.138876
0.127789
0.138755
0.790358
0.127816
0.790333
0.790129
0.209226
0.790444
0.138776
0.127735
0.138847
0.127777
0.127810
0.127777
0.127749
0.209020
0.127827
0.127856
0.127751
0.275005
0.209086
0.790444
0.138816
0.127846
0.127805
0.127709
0.797720
0.138818
0.138866
0.802753
0.138755
0.127744
0.790337
0.138824
0.127846
0.127749
0.138893
0.127816
0.127789
0.275005
0.790278
0.138876
0.790258
0.127750
0.127768
0.127777
0.138847
0.127838
0.138866
0.127744
0.127856
0.791050
0.209086
0.127709
0.138755
0.138776
0.138824
0.138866
0.127749
0.128315
0.790251
0.127805
0.133610
0.790290
0.138893
0.275073
0.127735
0.790334
0.127856
0.790058
0.127709
0.740061
0.138847
0.790761
0.209017
0.790367
0.138858
0.127749
0.138866
0.127777
0.127777
0.127777
0.790367
0.138824
0.138824
0.138893
0.790352
0.138893
0.127805
0.790348
0.127709
0.128315
0.127750
0.127750
0.128315
0.127751
0.790350
0.790334
0.127750
0.127744
0.794279
0.275005
0.127777
0.134461
0.138866
0.790370
0.128315
0.797899
0.128315
0.790423
0.138847
0.790251
0.790342
0.138876
0.790183
0.209017
0.127777
0.791050
0.138876
0.790312
0.127735
0.790342
0.790251
0.138818
0.127709
0.138762
0.127755
0.138824
0.133610
0.791050
0.127755
0.129260
0.275005
0.209211
0.127856
0.138847
0.209020
0.790358
0.137201
0.790407
0.795379
0.592301
0.138876
0.198470
0.209211
0.138809
0.138893
0.138893
0.138824
0.274979
0.790282
0.138809
0.127816
0.127709
0.138847
0.138811
0.275005
0.790355
0.138866
0.127805
0.127787
0.790253
0.209211
0.127846
0.275005
0.791050
0.138893
0.127838
0.138847
0.790367
0.790329
0.138824
0.138866
0.134461
0.790350
0.127827
0.790316
0.127755
0.127755
0.191086
0.810449
0.790416
0.127805
0.790251
0.790316
0.127816
0.138809
0.133610
0.128315
0.790251
0.138811
0.790278
0.138847
0.127846
0.139514
0.790367
0.127801
0.127709
0.790265
0.790296
0.138755
0.127801
0.138762
0.810310
0.740061
0.127810
0.789968
0.808373
0.127856
0.127735
0.127838
0.127744
0.791050
0.138858
0.790367
0.127805
0.790406
0.137201
0.592301
0.138866
0.127735
0.127789
0.138812
0.790315
0.127777
0.138836
0.791050
0.138809
0.127816
0.275052
0.810415
0.790336
0.191086
0.209020
0.127805
0.127726
0.790371
0.790251
0.191086
0.138776
0.128315
0.790352
0.275005
0.790316
0.139514
0.127735
0.127755
0.127755
0.127755
0.138858
0.127806
0.127755
0.138893
0.138824
0.790415
0.127723
0.127709
0.127789
0.790338
0.128315
0.127838
0.138876
0.790379
0.128481
0.138816
0.127787
0.209020
0.791050
0.139892
0.127777
0.275005
0.138811
0.127801
0.790369
0.127838
0.127735
0.128315
0.139892
0.127749
0.138824
0.791050
0.790348
0.790512
0.127838
0.790137
0.790377
0.198470
0.790316
0.661063
0.127846
0.134461
0.138836
0.198470
0.209226
0.790423
0.790334
0.127838
0.127768
0.138812
0.138866
0.127838
0.137201
0.127709
0.275005
0.127751
0.790376
0.790370
0.810267
0.133610
0.127726
0.790265
0.127805
0.275005
0.127761
0.138755
0.138893
0.138876
0.127735
0.789581
0.790137
0.127805
0.790284
0.138786
0.810449
0.127789
0.127827
0.128315
0.791050
0.810450
0.790284
0.790251
0.790305
0.138776
0.138858
0.127751
0.138866
0.127749
0.134461
0.133610
0.790407
0.275031
0.138876
0.791050
0.127749
0.138762
0.127777
0.127744
0.138824
0.127806
0.127846
0.127709
0.790258
0.275005
0.127805
0.127735
0.128315
0.790367
0.134461
0.790340
0.138847
0.138847
0.127838
0.127801
0.790321
0.127827
0.127787
0.790305
0.138876
0.138762
0.127709
0.790405
0.127768
0.789581
0.790373
0.127838
0.790400
0.275096
0.810387
0.790395
0.138824
0.127735
0.138876
0.127735
0.791050
0.138847
0.138847
0.236686
0.127810
0.790336
0.127709
0.275005
0.127789
0.138866
0.138866
0.134461
0.138847
0.790284
0.127856
0.127777
0.139514
0.790563
0.127777
0.790336
0.138876
0.138824
0.276671
0.127838
0.127735
0.790258
0.138716
0.790350
0.138824
0.138824
0.790296
0.138809
0.138807
0.790354
0.138866
0.127777
0.191086
0.127777
0.127735
0.127856
0.275057
0.127755
0.127755
0.790265
0.790352
0.127735
0.790283
0.127856
0.127749
0.128315
0.790337
0.420768
0.790336
0.791050
0.138836
0.790181
0.127768
0.790251
0.790388
0.803019
0.138847
0.790373
0.127723
0.790350
0.138807
0.790414
0.127735
0.139514
0.810415
0.127806
0.790396
0.138824
0.810450
0.790355
0.127749
0.127777
0.127827
0.128315
0.127755
0.128315
0.127749
0.138824
0.127761
0.138847
0.127838
0.138858
0.275005
0.127749
0.809601
0.790353
0.790245
0.137201
0.127755
0.138866
0.274968
0.790336
0.138824
0.138811
0.127709
0.127744
0.790285
0.127768
0.790339
0.791050
0.790258
0.791050
0.790445
0.127846
0.127846
0.138818
0.127709
0.127744
0.127827
0.790344
0.128315
0.138876
0.790395
0.127755
0.127750
0.127768
0.790371
0.127755
0.810369
0.127749
0.127735
0.138847
0.127856
0.138876
0.138866
0.127801
0.790336
0.791050
0.127827
0.138893
0.128315
0.133610
0.127838
0.127709
0.810462
0.139892
0.797720
0.139514
0.138876
0.127744
0.127768
0.790251
0.790313
0.138818
0.127709
0.127856
0.790301
0.209086
0.138876
0.127749
0.127755
0.127827
0.138876
0.127827
0.127846
0.127835
0.127789
0.790251
0.209020
0.127801
0.790370
0.790355
0.790336
0.465681
0.138893
0.789923
0.127801
0.127838
0.790300
0.127723
0.790329
0.127709
0.789837
0.127816
0.790350
0.790371
0.791050
0.790343
0.127755
0.795379
0.791050
0.138824
0.127735
0.138893
0.790107
0.127856
0.791050
0.127749
0.790329
0.790300
0.191086
0.209072
0.127856
0.790373
0.138811
0.127768
0.138876
0.138847
0.127838
0.127749
0.790294
0.127709
0.134461
0.791050
0.790251
0.127735
0.138876
0.138876
0.138847
0.138866
0.127735
0.138847
0.127744
0.790251
0.138755
0.127751
0.791050
0.127755
0.138847
0.127816
0.138893
0.127735
0.138893
0.127750
0.138824
0.138847
0.209011
0.802753
0.127755
0.810405
0.127768
0.790436
0.138866
0.138809
0.810442
0.790316
0.790340
0.790258
0.138786
0.127801
0.127806
0.128315
0.127846
0.127816
0.127827
0.790283
0.138811
0.790175
0.127750
0.128315
0.128315
0.138811
0.790336
0.137201
0.127709
0.138786
0.209011
0.127768
0.127777
0.790367
0.789997
0.138876
0.275023
0.138836
0.127846
0.127816
0.191086
0.275005
0.275005
0.127749
0.790354
0.138866
0.127856
0.790428
0.138893
0.134461
0.127838
0.128315
0.790284
0.134461
0.790434
0.129260
0.127806
0.127755
0.138847
0.138866
0.127856
0.138809
0.138847
0.127726
0.790339
0.127768
0.790347
0.138893
0.790292
0.138893
0.810442
0.789800
0.138876
0.127726
0.127735
0.138866
0.127777
0.740061
0.138816
0.138824
0.209226
0.209011
0.127750
0.138876
0.127838
0.127755
0.138847
0.138809
0.275005
0.138809
0.127750
0.134461
0.138893
0.127726
0.209017
0.149828
0.790409
0.791050
0.790359
0.127787
0.127750
0.790348
0.138755
0.209211
0.790877
0.127838
0.275005
0.138858
0.127846
0.790409
0.128315
0.127768
0.810448
0.133610
0.790415
0.592301
0.209072
0.795379
0.149828
0.128315
0.127723
0.127777
0.138866
0.138893
0.810441
0.129260
0.138755
0.209017
0.138824
0.138893
0.790336
0.127789
0.138812
0.274954
0.790058
0.791050
0.127846
0.790353
0.127735
0.127805
0.790316
0.127755
0.134461
0.138786
0.209011
0.127726
0.790423
0.138866
0.127726
0.127709
0.127709
0.791050
0.127856
0.127838
0.127709
0.209017
0.420768
0.138812
0.790377
0.138776
0.790416
0.209226
0.790291
0.790348
0.790016
0.129260
0.790370
0.138876
0.127789
0.790359
0.127744
0.138776
0.790794
0.127846
0.790405
0.138866
0.191086
0.790303
0.275001
0.790355
0.790251
0.127846
0.127838
0.138876
0.127755
0.127838
0.127835
0.137201
0.127838
0.790444
0.275090
0.275005
0.127744
0.790355
0.790415
0.127856
0.127750
0.128315
0.790414
0.275005
0.138876
0.127755
0.127856
0.127755
0.790341
0.127789
0.127835
0.127768
0.275005
0.127768
0.791050
0.790416
0.795379
0.790373
0.138866
0.138809
0.127789
0.138866
0.138809
0.138824
0.790305
0.790341
0.790389
0.790416
0.138866
0.127846
0.209072
0.138786
0.127805
0.137201
0.134461
0.127777
0.791050
0.138811
0.790251
0.127838
0.138866
0.128481
0.803019
0.127777
0.127827
0.138876
0.791050
0.127827
0.209211
0.209226
0.138818
0.138876
0.790379
0.790367
0.138847
0.127749
0.138809
0.790353
0.275158
0.138893
0.138858
0.138866
0.138893
0.133610
0.127838
0.139514
0.793755
0.127856
0.128315
0.138893
0.209086
0.127789
0.275005
0.127709
0.275042
0.127806
0.138847
0.793755
0.138786
0.138876
0.137201
0.138876
0.127735
0.138847
0.127856
0.810393
0.790416
0.790251
0.127735
0.138876
0.127810
0.127751
0.275057
0.791050
0.138812
0.127768
0.790351
0.129260
0.138847
0.209086
0.127816
0.209211
0.789796
0.127816
0.790336
0.127735
0.790251
0.138893
0.138776
0.275005
0.209226
0.209086
0.790338
0.790251
0.138847
0.138876
0.275018
0.138893
0.127735
0.127755
0.790364
0.772696
0.790445
0.127827
0.127750
0.127726
0.790316
0.275005
0.138876
0.127751
0.138876
0.790304
0.275005
0.810442
0.790251
0.801409
0.138818
0.790251
0.139892
0.275029
0.791050
0.791050
0.790301
0.790353
0.138776
0.740061
0.127755
0.129260
0.138824
0.790414
0.137201
0.128315
0.790447
0.127750
0.790416
0.138755
0.127789
0.128315
0.127789
0.138847
0.127846
0.127806
0.790342
0.790300
0.127755
0.790251
0.127846
0.277204
0.138836
0.138847
0.127749
0.790423
0.128315
0.275005
0.138876
0.790251
0.191086
0.138755
0.790366
0.138876
0.127787
0.138866
0.790315
0.236686
0.790301
0.127816
0.127723
0.138847
0.209020
0.127838
0.790036
0.138762
0.795379
0.127801
0.127755
0.127768
0.138866
0.790357
0.127827
0.275005
0.138847
0.791050
0.138762
0.275005
0.128315
0.138847
0.139892
0.790337
0.127777
0.790305
0.790316
0.138776
0.133610
0.138847
0.127751
0.134461
0.790386
0.209226
0.127827
0.127777
0.127723
0.138893
0.129260
0.128315
0.138847
0.138876
0.138866
0.127787
0.138847
0.420768
0.420768
0.138786
0.790370
0.127827
0.790251
0.790563
0.810448
0.127789
0.127806
0.138755
0.127755
0.138866
0.138847
0.127838
0.209086
0.138876
0.236686
0.791050
0.138847
0.127801
0.275005
0.790036
0.275110
0.789770
0.790251
0.127810
0.790268
0.790304
0.790261
0.790291
0.127827
0.127838
0.790348
0.127735
0.138893
0.127835
0.790416
0.127805
0.810310
0.127751
0.127751
0.209011
0.138893
0.127838
0.127726
0.127835
0.128315
0.138786
0.127735
0.275005
0.790251
0.138893
0.275124
0.127777
0.127787
0.198470
0.127755
0.236686
0.790348
0.138893
0.790409
0.790291
0.275005
0.127768
0.138876
0.790353
0.790338
0.127755
0.127789
0.127816
0.127768
0.127735
0.128315
0.138847
0.790251
0.138812
0.138824
0.127838
0.138876
0.790251
0.209072
0.790407
0.138807
0.127709
0.209226
0.791319
0.138876
0.138876
0.790348
0.790376
0.790361
0.127768
0.790316
0.790265
0.792106
0.138893
0.790346
0.790369
0.127827
0.198470
0.138847
0.138893
0.127735
0.138818
0.790761
0.127777
0.138847
0.127846
0.790316
0.137201
0.791050
0.127777
0.128481
0.806732
0.127709
0.790359
0.790334
0.138866
0.127846
0.129260
0.791050
0.791050
0.209017
0.795379
0.127810
0.127709
0.127750
0.134461
0.127805
0.127787
0.790374
0.127789
0.790355
0.790344
0.790329
0.790285
0.790329
0.790336
0.138876
0.128315
0.138847
0.138876
0.138786
0.138809
0.790317
0.138847
0.790761
0.127838
0.275030
0.127838
0.790416
0.790334
0.790316
0.790342
0.138847
0.127750
0.790336
0.128315
0.790278
0.138866
0.275005
0.138716
0.138847
0.790251
0.138847
0.127805
0.127827
0.127789
0.209086
0.127777
0.790285
0.128315
0.740061
0.791050
0.127751
0.127827
0.127856
0.191086
0.138866
0.133610
0.274971
0.790369
0.127805
0.127806
0.138893
0.138866
0.791050
0.127755
0.790342
0.810267
0.138847
0.790379
0.138847
0.209211
0.138847
0.127787
0.138762
0.790347
0.127751
0.127827
0.790370
0.138866
0.790251
0.790366
0.127805
0.127806
0.138866
0.138824
0.790251
0.790354
0.790251
0.127827
0.127789
0.138762
0.790352
0.127751
0.127749
0.128315
0.790405
0.790317
0.127801
0.790263
0.790290
0.138847
0.127787
0.128481
0.191086
0.127827
0.138893
0.138755
0.127789
0.138847
0.127749
0.127838
0.138866
0.592301
0.275005
0.790251
0.789645
0.128315
0.138847
0.790336
0.138893
0.127856
0.790347
0.790348
0.138818
0.127789
0.138809
0.127755
0.127789
0.127749
0.790444
0.275005
0.127735
0.133610
0.138811
0.127827
0.790284
0.127768
0.138893
0.790342
0.127838
0.127827
0.789997
0.127777
0.275005
0.127777
0.790301
0.127806
0.129260
0.138866
0.127806
0.792106
0.138776
0.133610
0.127838
0.138876
0.138824
0.740061
0.128315
0.127827
0.138876
0.791050
0.138755
0.209072
0.191086
0.138812
0.138866
0.791050
0.138816
0.127801
0.138816
0.127735
0.127777
0.127768
0.790251
0.127751
0.138893
0.128315
0.127709
0.789817
0.790354
0.127709
0.138847
0.127755
0.127768
0.275005
0.127856
0.790367
0.790369
0.791283
0.138893
0.134461
0.790336
0.127777
0.127709
0.127735
0.138847
0.138816
0.127777
0.138716
0.209086
0.138755
0.127726
0.790084
0.138893
0.789826
0.138866
0.790336
0.790139
0.127709
0.790036
0.127726
0.127735
0.191086
0.790278
0.790416
0.790316
0.790445
0.138847
0.127755
0.810401
0.791050
0.198470
0.138824
0.791050
0.127787
0.275005
0.138876
0.127755
0.127749
0.275005
0.133610
0.127827
0.127856
0.275005
0.790053
0.209086
0.790355
0.138876
0.127801
0.790036
0.127846
0.795379
0.791319
0.790396
0.274972
0.127749
0.138866
0.127835
0.790268
0.790415
0.127723
0.790251
0.138812
0.790265
0.138847
0.790374
0.138786
0.138893
0.138858
0.803019
0.790428
0.790329
0.191086
0.138893
0.127835
0.127726
0.790352
0.138893
0.790376
0.127827
0.792106
0.127709
0.127750
0.127744
0.127856
0.794279
0.641235
0.138755
0.127806
0.128315
0.790251
0.127805
0.275005
0.790293
0.275005
0.134461
0.791050
0.127816
0.198470
0.138786
0.275150
0.139514
0.138847
0.138716
0.138876
0.790329
0.275005
0.127755
0.138893
0.127749
0.790957
0.790352
0.127838
0.127827
0.127755
0.791050
0.138847
0.138847
0.127723
0.138858
0.790382
0.127751
0.420768
0.127749
0.790460
0.790423
0.275005
0.138812
0.790251
0.810485
0.127787
0.138893
0.134461
0.127805
0.127777
0.808514
0.790374
0.790301
0.275020
0.790348
0.791050
0.790317
0.138847
0.790370
0.791050
0.127827
0.209017
0.138866
0.420768
0.127750
0.127744
0.128315
0.790385
0.138893
0.138836
0.138893
0.127789
0.138876
0.790305
0.138818
0.127768
0.790374
0.791050
0.275005
0.790251
0.789809
0.790251
0.138847
0.275057
0.138847
0.138847
0.138755
0.790423
0.127777
0.138812
0.127856
0.127735
0.790341
0.790436
0.127735
0.138824
0.138858
0.138818
0.790416
0.127846
0.191086
0.138876
0.127777
0.127755
0.792106
0.128315
0.128315
0.139514
0.127805
0.138866
0.127801
0.138858
0.127744
0.149828
0.127801
0.791050
0.790355
0.127709
0.275110
0.133610
0.790389
0.790348
0.127787
0.127768
0.138893
0.127726
0.315525
0.209017
0.127777
0.127805
0.127838
0.138876
0.127827
0.209211
0.275023
0.790316
0.209211
0.127816
0.790251
0.137201
0.138847
0.275029
0.138858
0.138847
0.138836
0.790251
0.127709
0.127735
0.127838
0.127846
0.127801
0.209226
0.790350
0.209011
0.127827
0.127805
0.138876
0.127789
0.127750
0.127777
0.127726
0.127750
0.139892
0.138893
0.127789
0.138847
0.138847
0.791050
0.138876
0.127723
0.790290
0.138866
0.138847
0.127709
0.138876
0.127856
0.127806
0.138847
0.127777
0.138866
0.127838
0.275005
0.138876
0.790359
0.790343
0.127856
0.138847
0.138893
0.127749
0.138824
0.128315
0.127856
0.139892
0.790761
0.275005
0.790291
0.138876
0.138755
0.138847
0.138866
0.790163
0.790251
0.129260
0.791050
0.127789
0.790447
0.209211
0.790291
0.129260
0.138893
0.790367
0.127735
0.127805
0.791050
0.127709
0.127777
0.127750
0.275005
0.790316
0.127744
0.138876
0.793755
0.138847
0.138876
0.802753
0.556764
0.127801
0.138876
0.127856
0.138876
0.191086
0.127751
0.127735
0.138893
0.127846
0.128481
0.127726
0.127744
0.127735
0.789814
0.790331
0.790284
0.127846
0.138893
0.791050
0.138847
0.127750
0.138824
0.127755
0.790337
0.790426
0.127827
0.790163
0.127846
0.128315
0.138816
0.808373
0.275005
0.127827
0.138866
0.790359
0.138876
0.127789
0.127816
0.127846
0.209072
0.127856
0.790251
0.791050
0.128315
0.129260
0.790343
0.127750
0.127755
0.790355
0.138866
0.127749
0.790370
0.129260
0.127827
0.127723
0.209020
0.127750
0.127777
0.791050
0.139514
0.790407
0.138836
0.127751
0.138847
0.127805
0.138786
0.127768
0.138847
0.790370
0.275005
0.191086
0.275018
0.791050
0.127749
0.127827
0.127777
0.138876
0.275005
0.127768
0.138786
0.138824
0.274954
0.127801
0.789634
0.790251
0.127709
0.138858
0.789836
0.790354
0.138847
0.127789
0.127789
0.209011
0.138847
0.793755
0.128315
0.127816
0.592301
0.790303
0.790126
0.127750
0.790436
0.127744
0.138866
0.138876
0.127744
0.209072
0.810429
0.127709
0.127789
0.127856
0.134461
0.127735
0.127749
0.128315
0.275042
0.127856
0.138876
0.127827
0.790336
0.792106
0.275005
0.209011
0.790373
0.138866
0.790251
0.790363
0.138893
0.790300
0.127805
0.209020
0.791050
0.592301
0.134461
0.127846
0.790353
0.790423
0.127751
0.790367
0.127838
0.138847
0.128315
0.791319
0.127856
0.138893
0.790060
0.138866
0.127816
0.127749
0.790352
0.789974
0.790416
0.127835
0.236686
0.790285
0.127806
0.275005
0.191086
0.790436
0.138816
0.138716
0.137201
0.127787
0.127735
0.137201
0.127838
0.790379
0.127827
0.127751
0.275005
0.275005
0.134461
0.127777
0.128315
0.127726
0.790290
0.127810
0.127735
0.275042
0.209020
0.790877
0.138807
0.275005
0.134461
0.138866
0.127846
0.275116
0.790207
0.127816
0.127726
0.791050
0.127726
0.127749
0.790280
0.138812
0.138893
0.127838
0.127827
0.138836
0.127838
0.790369
0.127806
0.790414
0.209211
0.127750
0.790376
0.127801
0.138847
0.127838
0.138866
0.133610
0.138893
0.810369
0.138811
0.791050
0.790251
0.791050
0.138824
0.127750
0.802688
0.127856
0.138809
0.127827
0.790342
0.138866
0.127787
0.791050
0.134461
0.127805
0.149828
0.127777
0.138893
0.790301
0.127801
0.127777
0.128315
0.127805
0.127827
0.791050
0.127838
0.790416
0.138836
0.127755
0.127846
0.127856
0.789833
0.138755
0.790376
0.790316
0.790373
0.127777
0.138807
0.791250
0.127735
0.127777
0.138812
0.790317
0.138847
0.138876
0.138847
0.127806
0.127856
0.791050
0.789920
0.127856
0.790296
0.127827
0.127709
0.138824
0.810401
0.127709
0.127801
0.127787
0.127749
0.127735
0.790344
0.236686
0.275005
0.209226
0.128315
0.127827
0.790369
0.274972
0.138876
0.127751
0.790181
0.127838
0.138776
0.790358
0.275005
0.404875
0.138876
0.138847
0.138876
0.127749
0.127761
0.138876
0.138755
0.790439
0.717230
0.127827
0.790357
0.740061
0.138811
0.127744
0.810448
0.138847
0.138762
0.127768
0.138816
0.790316
0.138866
0.138876
0.790376
0.138893
0.138893
0.127838
0.127768
0.790339
0.127827
0.803019
0.138824
0.127744
0.138716
0.127846
0.127856
0.791050
0.127838
0.275075
0.209020
0.138809
0.138847
0.191086
0.790377
0.127787
0.790271
0.138847
0.127777
0.127755
0.790338
0.127749
0.791050
0.138847
0.790390
0.275005
0.138755
0.127856
0.790251
0.790316
0.128315
0.127735
0.138762
0.740061
0.790337
0.740061
0.790084
0.127827
0.127777
0.790298
0.139514
0.127744
0.138755
0.790379
0.138816
0.790327
0.127789
0.127777
0.556764
0.790338
0.127838
0.127838
0.790316
0.139892
0.791050
0.791050
0.127777
0.717230
0.790251
0.127856
0.127750
0.127805
0.275005
0.127750
0.127777
0.127856
0.138824
0.138866
0.127789
0.127856
0.127709
0.790300
0.790777
0.138762
0.138847
0.127805
0.138876
0.127805
0.127755
0.138876
0.138893
0.810401
0.790336
0.740061
0.138866
0.127755
0.790251
0.790343
0.790251
0.191086
0.209011
0.127846
0.127838
0.128481
0.139514
0.209011
0.790369
0.790445
0.315525
0.790338
0.127777
0.127749
0.790265
0.138876
0.790355
0.138847
0.790445
0.810405
0.790336
0.591622
0.127755
0.791050
0.790265
0.138807
0.133610
0.127835
0.139514
0.138893
0.790416
0.789974
0.790384
0.138812
0.127709
0.790379
0.790423
0.127806
0.127846
0.129260
