0.128655
0.139830
0.139861
0.139789
0.788480
0.128629
0.128671
0.788350
0.128563
0.128563
0.795875
0.128671
0.139830
0.788326
0.128630
0.788464
0.788553
0.128650
0.788357
0.139812
0.135955
0.128628
0.128622
0.276519
0.788362
0.276611
0.128567
0.139812
0.128616
0.128567
0.128613
0.135360
0.139803
0.128672
0.808652
0.129165
0.130173
0.128588
0.128616
0.788390
0.139843
0.128567
0.207865
0.788390
0.788357
0.788401
0.128671
0.139861
0.128700
0.129371
0.788415
0.128622
0.139803
0.128579
0.128628
0.139818
0.139803
0.139830
0.139788
0.788361
0.788430
0.788357
0.139877
0.128655
0.788357
0.788489
0.139812
0.276588
0.276588
0.128700
0.788400
0.128629
0.809003
0.139843
0.209637
0.789112
0.139852
0.139803
0.788477
0.139818
0.129165
0.789112
0.788506
0.276515
0.250103
0.139849
0.128671
0.139909
0.276588
0.128589
0.788371
0.128671
0.128629
0.139763
0.139830
0.128599
0.788390
0.788390
0.139852
0.788375
0.788392
0.128629
0.209759
0.139861
0.788362
0.793902
0.139852
0.128599
0.128613
0.788474
0.128628
0.139812
0.788398
0.788429
0.250103
0.128599
0.128644
0.128655
0.139815
0.128616
0.653230
0.139803
0.128671
0.353171
0.128567
0.779766
0.139818
0.760355
0.139830
0.139812
0.128650
0.788357
0.788361
0.139852
0.276588
0.139769
0.788491
0.139803
0.788477
0.139830
0.788462
0.139803
0.139843
0.181795
0.788357
0.139815
0.129165
0.788457
0.128589
0.128629
0.788424
0.788510
0.139812
0.181795
0.128672
0.139887
0.139815
0.139818
0.128651
0.128589
0.139763
0.760355
0.129165
0.615375
0.808988
0.139849
0.139815
0.788468
0.139793
0.788357
0.135955
0.788482
0.807497
0.276551
0.788457
0.139812
0.139830
0.139830
0.788357
0.128655
0.139812
0.787844
0.139803
0.139803
0.788459
0.139763
0.788361
0.128671
0.788326
0.788458
0.130173
0.795875
0.128599
0.139803
0.128563
0.615375
0.250103
0.788467
0.788409
0.128622
0.276588
0.276519
0.139815
0.128616
0.135060
0.139815
0.139909
0.209628
0.128629
0.139877
0.128644
0.788405
0.181795
0.128613
0.787908
0.209759
0.788428
0.788052
0.788480
0.129165
0.128630
0.789112
0.135360
0.128629
0.128655
0.129371
0.128672
0.788491
0.128628
0.139789
0.130173
0.788326
0.128599
0.128567
0.139815
0.135060
0.139788
0.788467
0.139843
0.209716
0.128599
0.128655
0.139812
0.276588
0.209716
0.250103
0.139852
0.788432
0.789263
0.789112
0.128589
0.209628
0.788489
0.789112
0.139769
0.139852
0.130173
0.139788
0.209744
0.128630
0.209716
0.128655
0.128630
0.788453
0.353171
0.788180
0.128613
0.788400
0.788479
0.139803
0.139815
0.128622
0.209742
0.135360
0.181795
0.139818
0.276588
0.128655
0.788457
0.128655
0.788469
0.128588
0.128616
0.139789
0.209637
0.788465
0.791108
0.139843
0.139861
0.181795
0.788425
0.788490
0.279978
0.128671
0.139763
0.128629
0.128622
0.139852
0.788464
0.128563
0.128567
0.128622
0.788449
0.128589
0.128671
0.128616
0.139793
0.139803
0.128569
0.804239
0.489477
0.207865
0.788431
0.788493
0.139849
0.809106
0.139815
0.788381
0.128567
0.128579
0.139830
0.139818
0.128569
0.792455
0.788431
0.139815
0.809053
0.139849
0.139803
0.139830
0.788399
0.139830
0.135360
0.276594
0.128563
0.139789
0.788430
0.771953
0.128588
0.788480
0.788402
0.128622
0.789112
0.139812
0.128629
0.128567
0.129371
0.788124
0.139818
0.128655
0.128588
0.128672
0.209744
0.130173
0.788355
0.128655
0.788469
0.276677
0.760355
0.209637
0.139815
0.788357
0.128599
0.139830
0.128622
0.276588
0.129371
0.128655
0.139793
0.139861
0.139861
0.139795
0.128655
0.788361
0.276683
0.139830
0.128672
0.139803
0.139815
0.787823
0.788446
0.789492
0.209716
0.128563
0.128616
0.139815
0.128616
0.788439
0.128655
0.788354
0.789112
0.139769
0.139769
0.139793
0.128644
0.128622
0.788603
0.128655
0.139815
0.788357
0.139812
0.789112
0.276588
0.788429
0.788424
0.128655
0.139788
0.276588
0.139818
0.128672
0.128567
0.788397
0.788357
0.128700
0.788357
0.788390
0.139803
0.128655
0.128655
0.209742
0.128651
0.139887
0.128599
0.128671
0.139830
0.128655
0.128629
0.139815
0.128567
0.276588
0.128671
0.128629
0.139852
0.788326
0.139830
0.276588
0.139852
0.788433
0.128672
0.139830
0.128613
0.209628
0.139763
0.139830
0.139830
0.128700
0.135360
0.789112
0.129165
0.128650
0.788357
0.139849
0.139812
0.507724
0.788473
0.788357
0.128622
0.788398
0.139830
0.128700
0.139852
0.788424
0.809035
0.209759
0.128599
0.128671
0.128589
0.789112
0.788489
0.793902
0.788427
0.139830
0.139815
0.139795
0.793902
0.139793
0.139830
0.788324
0.128616
0.135360
0.128629
0.139861
0.788390
0.209744
0.128650
0.128616
0.128567
0.209744
0.788467
0.128630
0.788182
0.170684
0.128567
0.128700
0.139815
0.788448
0.139843
0.128563
0.789112
0.788453
0.788464
0.139803
0.788361
0.181795
0.276588
0.128599
0.139815
0.788579
0.788424
0.788398
0.788405
0.139815
0.809052
0.139812
0.809115
0.209742
0.139788
0.276588
0.139789
0.139830
0.139909
0.128622
0.788387
0.128655
0.135360
0.787989
0.128629
0.128567
0.139815
0.128629
0.276588
0.788438
0.139803
0.128651
0.276600
0.276588
0.788371
0.788373
0.129165
0.788504
0.789112
0.788350
0.128616
0.788429
0.788393
0.788357
0.788357
0.128651
0.789112
0.788467
0.788417
0.788418
0.209628
0.139830
0.788431
0.139830
0.128589
0.139803
0.128655
0.129165
0.139793
0.139830
0.276588
0.139812
0.788476
0.128616
0.209744
0.128671
0.790951
0.128589
0.139815
0.128630
0.788509
0.789112
0.128567
0.788459
0.128628
0.209637
0.135360
0.128672
0.139812
0.788434
0.170684
0.128613
0.139843
0.139812
0.128629
0.788466
0.128613
0.139795
0.209716
0.788482
0.128644
0.139793
0.788466
0.788476
0.139877
0.130173
0.787771
0.128630
0.788357
0.139818
0.788491
0.139812
0.139763
0.808484
0.128622
0.128589
0.788401
0.128622
0.788444
0.139843
0.129371
0.788399
0.792455
0.128655
0.139830
0.788405
0.139803
0.788357
0.128599
0.129165
0.128567
0.276588
0.788357
0.276588
0.128613
0.139803
0.128651
0.128655
0.139815
0.139812
0.139852
0.139852
0.788415
0.128588
0.789112
0.788429
0.276700
0.128567
0.128613
0.135060
0.788476
0.139812
0.128629
0.128655
0.788357
0.140046
0.128622
0.807497
0.128622
0.139812
0.128689
0.276588
0.139812
0.139815
0.128629
0.128629
0.789112
0.128630
0.128563
0.788249
0.128622
0.128629
0.128599
0.128629
0.128629
0.128629
0.128599
0.128579
0.788490
0.139793
0.788482
0.128650
0.128599
0.128651
0.128622
0.139815
0.788427
0.788471
0.128630
0.128616
0.276588
0.788394
0.128650
0.139815
0.276588
0.128672
0.128630
0.128567
0.788324
0.128629
0.128563
0.135955
0.129224
0.170684
0.139877
0.139769
0.128630
0.128567
0.139861
0.139830
0.128655
0.128684
0.139877
0.788350
0.139909
0.139793
0.128672
0.128655
0.209742
0.128622
0.139793
0.209637
0.788357
0.788506
0.788405
0.788398
0.128672
0.128655
0.128655
0.128616
0.139909
0.128630
0.276588
0.139815
0.139830
0.128622
0.788446
0.787908
0.139815
0.787896
0.802568
0.139815
0.128650
0.128599
0.139788
0.135360
0.128655
0.788361
0.139830
0.139793
0.139830
0.128622
0.788424
0.128628
0.788092
0.130173
0.788480
0.128655
0.139815
0.128613
0.788477
0.809060
0.788464
0.209637
0.128655
0.128599
0.129165
0.788367
0.128655
0.128563
0.128616
0.811008
0.788470
0.128651
0.789112
0.788491
0.788430
0.139830
0.809037
0.128650
0.128671
0.788324
0.139830
0.128684
0.789112
0.139795
0.139803
0.788397
0.788374
0.139818
0.788357
0.139909
0.788203
0.139830
0.128629
0.128655
0.128655
0.128629
0.139852
0.128650
0.128630
0.128651
0.760355
0.128629
0.788482
0.139830
0.129165
0.789112
0.788434
0.139843
0.139812
0.129165
0.130173
0.128655
0.276588
0.128655
0.788390
0.276662
0.760355
0.139763
0.128689
0.128672
0.139812
0.135060
0.135360
0.788416
0.788381
0.128567
0.789112
0.128655
0.139818
0.128671
0.139795
0.789112
0.128563
0.276662
0.128684
0.789112
0.788462
0.128672
0.128655
0.128616
0.128589
0.129371
0.129165
0.788479
0.788430
0.128616
0.788434
0.788494
0.788357
0.793902
0.139812
0.129165
0.128622
0.128567
0.139830
0.139830
0.788357
0.788453
0.139788
0.276588
0.788494
0.128655
0.139909
0.446497
0.139812
0.808970
0.128655
0.788381
0.276588
0.791007
0.128599
0.128599
0.139812
0.788414
0.788467
0.139793
0.788446
0.128650
0.788429
0.788390
0.139803
0.788390
0.128589
0.139818
0.789112
0.139803
0.139852
0.789263
0.128588
0.139815
0.809046
0.789112
0.788357
0.798903
0.789112
0.128650
0.139793
0.128616
0.128563
0.128671
0.788377
0.788459
0.139830
0.128622
0.789112
0.128613
0.788530
0.128579
0.128613
0.139887
0.276588
0.788360
0.139830
0.128589
0.128630
0.128616
0.276518
0.128588
0.788477
0.128567
0.128629
0.250103
0.128655
0.808988
0.128655
0.128628
0.139830
0.789112
0.788304
0.788449
0.135360
0.788350
0.788469
0.135060
0.128579
0.139795
0.277641
0.276588
0.128563
0.139909
0.788381
0.128671
0.139815
0.788390
0.788373
0.139818
0.128672
0.139818
0.128655
0.128655
0.788333
0.788372
0.788464
0.139815
0.276588
0.139815
0.139818
0.788326
0.788382
0.139763
0.128588
0.139812
0.139815
0.128616
0.788431
0.788431
0.446497
0.788357
0.788491
0.788390
0.128630
0.139887
0.788360
0.128671
0.808959
0.129224
0.276588
0.128630
0.276588
0.139909
0.139789
0.128569
0.128650
0.128628
0.139818
0.788468
0.788357
0.794079
0.276593
0.209628
0.788400
0.128613
0.139815
0.789112
0.128671
0.128622
0.139812
0.128672
0.798221
0.128622
0.788357
0.128629
0.787823
0.789112
0.788357
0.139763
0.128599
0.135360
0.809015
0.139861
0.128613
0.128589
0.128671
0.789112
0.209742
0.788449
0.788430
0.128563
0.807497
0.128622
0.128655
0.139803
0.128613
0.128599
0.128589
0.128655
0.128599
0.139803
0.788418
0.139830
0.788410
0.135955
0.139830
0.809039
0.128655
0.788381
0.788357
0.788381
0.788357
0.139815
0.250103
0.788430
0.129165
0.128563
0.209628
0.788457
0.788431
0.139830
0.139852
0.139788
0.788295
0.128599
0.128579
0.139812
0.788427
0.139815
0.128599
0.139789
0.128616
0.789112
0.788473
0.788410
0.139815
0.128655
0.128629
0.128655
0.276662
0.139815
0.129371
0.788135
0.139849
0.788400
0.139812
0.789112
0.139815
0.788381
0.128599
0.128671
0.788326
0.788553
0.139861
0.653230
0.128613
0.128567
0.788390
0.209744
0.128616
0.788477
0.788390
0.788357
0.128672
0.128579
0.139852
0.128671
0.128589
0.209744
0.128630
0.128567
0.788381
0.128567
0.760355
0.129165
0.209628
0.787889
0.788459
0.139830
0.788326
0.788357
0.128563
0.139815
0.139793
0.128672
0.135360
0.788697
0.139769
0.129165
0.139793
0.788357
0.139793
0.788117
0.128630
0.788394
0.128650
0.788354
0.139843
0.808959
0.128616
0.788324
0.139830
0.276588
0.209759
0.128622
0.139789
0.788335
0.129165
0.128569
0.128651
0.625452
0.139849
0.788432
0.788444
0.128671
0.129165
0.139815
0.139803
0.790951
0.139830
0.276588
0.128655
0.788430
0.139909
0.789112
0.139849
0.139830
0.128655
0.140046
0.128616
0.170684
0.788431
0.139830
0.207865
0.788462
0.140046
0.139852
0.788373
0.788459
0.128655
0.128599
0.779650
0.276588
0.128589
0.788466
0.139849
0.128700
0.276612
0.128622
0.128569
0.128629
0.276588
0.128672
0.276588
0.128616
0.139812
0.128588
0.276651
0.788504
0.128563
0.128671
0.129224
0.788357
0.139818
0.209716
0.788464
0.128588
0.128613
0.788357
0.139830
0.128569
0.128613
0.128672
0.788423
0.128655
0.128629
0.139830
0.139909
0.788477
0.788369
0.128671
0.798221
0.139830
0.128629
0.128671
0.139849
0.139812
0.128588
0.139909
0.139803
0.139803
0.788446
0.128613
0.788431
0.128630
0.788390
0.788010
0.128700
0.128628
0.139793
0.139852
0.139815
0.128672
0.139852
0.128613
0.276546
0.140046
0.788439
0.129224
0.128655
0.128599
0.139909
0.788357
0.788477
0.128672
0.139812
0.788390
0.128672
0.128599
0.788403
0.809052
0.788433
0.276588
0.209628
0.789112
0.128613
0.139830
0.128629
0.139815
0.139818
0.139789
0.130173
0.128629
0.139830
0.139877
0.139812
0.128588
0.128655
0.128671
0.808442
0.139909
0.788458
0.788459
0.128622
0.139795
0.788455
0.808971
0.788326
0.139909
0.139887
0.139803
0.788429
0.789112
0.788419
0.129165
0.207865
0.789112
0.788504
0.276588
0.787895
0.129165
0.129371
0.788553
0.139830
0.139877
0.809060
0.135360
0.130173
0.139909
0.209637
0.139788
0.788424
0.128630
0.128629
0.139815
0.139763
0.139818
0.128650
0.128671
0.135360
0.209759
0.128567
0.139818
0.128655
0.139887
0.788449
0.788390
0.128655
0.139818
0.139815
0.789112
0.135360
0.788357
0.129165
0.789112
0.788330
0.139815
0.787944
0.276588
0.135955
0.276588
0.788439
0.788424
0.139815
0.128651
0.209637
0.128629
0.139812
0.139815
0.128700
0.128613
0.128588
0.128630
0.788476
0.128567
0.128622
0.788138
0.302632
0.276518
0.139812
0.788226
0.128651
0.276588
0.128650
0.788333
0.139815
0.788357
0.140046
0.128622
0.139788
0.128672
0.128644
0.788411
0.128672
0.128579
0.139830
0.128655
0.128599
0.788504
0.129165
0.128567
0.207865
0.128588
0.128616
0.139877
0.129165
0.128671
0.139793
0.139803
0.788398
0.139763
0.128672
0.788357
0.128671
0.209637
0.139815
0.788480
0.139843
0.788396
0.128628
0.128672
0.128651
0.788477
0.139909
0.135360
0.139877
0.789112
0.128613
0.128655
0.135360
0.209744
0.788427
0.789112
0.128629
0.209637
0.139815
0.276588
0.139815
0.139861
0.139812
0.788459
0.788464
0.446497
0.788431
0.128672
0.787944
0.250103
0.209742
0.128650
0.135360
0.128622
0.128629
0.788398
0.788373
0.128569
0.128629
0.139830
0.128671
0.139803
0.139830
0.139830
0.128655
0.135955
0.139803
0.128567
0.788504
0.788455
0.128613
0.139852
0.276588
0.139815
0.788390
0.209742
0.792455
0.788459
0.788477
0.128599
0.139815
0.128672
0.788504
0.135360
0.135360
0.128655
0.128671
0.128579
0.128599
0.788466
0.209742
0.139887
0.788362
0.139795
0.139849
0.135360
0.788424
0.128700
0.128622
0.788477
0.128655
0.139815
0.788393
0.139812
0.128672
0.788459
0.139795
0.788449
0.128672
0.809008
0.788357
0.139789
0.788489
0.128616
0.139843
0.128622
0.128622
0.128599
0.128613
0.128628
0.788453
0.128629
0.209759
0.128616
0.128589
0.129371
0.140046
0.139763
0.128613
0.139815
0.788400
0.139830
0.128630
0.128563
0.128622
0.788433
0.788415
0.787844
0.128700
0.128622
0.139830
0.788357
0.128630
0.788394
0.139793
0.139795
0.789112
0.788417
0.788464
0.788350
0.788476
0.128569
0.809053
0.788491
0.139789
0.791007
0.808442
0.128599
0.128629
0.128588
0.788424
0.788477
0.139812
0.209628
0.789112
0.128616
0.129224
0.139815
0.128651
0.128616
0.276588
0.788553
0.139812
0.139815
0.788357
0.128613
0.139788
0.128579
0.139830
0.790951
0.788480
0.788462
0.788333
0.128563
0.128671
0.128613
0.276588
0.788357
0.139852
0.128616
0.128567
0.128569
0.788491
0.788399
0.788390
0.788258
0.128655
0.788431
0.128629
0.128567
0.128655
0.139812
0.788504
0.139849
0.128563
0.139769
0.788419
0.139887
0.788477
0.128616
0.139812
0.128671
0.139815
0.128651
0.788473
0.788381
0.139769
0.128672
0.788430
0.139815
0.128563
0.139818
0.139812
0.129371
0.788363
0.139815
0.129224
0.139818
0.788399
0.128650
0.128672
0.139830
0.788457
0.128599
0.788357
0.128655
0.788427
0.788373
0.139830
0.139812
0.128655
0.128622
0.128630
0.789112
0.128622
0.788473
0.128651
0.788477
0.788357
0.788357
0.788390
0.788326
0.788463
0.788399
0.788462
0.139815
0.788357
0.128672
0.128622
0.128613
0.139815
0.788429
0.788477
0.170684
0.128671
0.128655
0.788429
0.139830
0.128671
0.276588
0.788401
0.788430
0.139812
0.128613
0.788357
0.788052
0.139815
0.128622
0.129371
0.128567
0.128644
0.128644
0.276588
0.276588
0.276619
0.128588
0.139830
0.128700
0.788431
0.139812
0.128563
0.788469
0.128622
0.276588
0.653230
0.788172
0.128655
0.788414
0.788477
0.128563
0.798903
0.788467
0.276553
0.209716
0.128630
0.128629
0.129371
0.128616
0.128613
0.139830
0.128651
0.128689
0.788357
0.788375
0.128628
0.128616
0.788357
0.140046
0.139815
0.788403
0.128629
0.128671
0.128630
0.276588
0.139793
0.788335
0.139887
0.788432
0.788391
0.128622
0.128622
0.139788
0.788476
0.128622
0.788430
0.507724
0.128655
0.128671
0.128569
0.128613
0.139815
0.139788
0.209716
0.788394
0.276588
0.128650
0.250103
0.139852
0.139815
0.139803
0.128672
0.139849
0.788397
0.139818
0.128650
0.128613
0.139812
0.276588
0.128671
0.129371
0.128599
0.788330
0.128622
0.790951
0.276588
0.788489
0.170684
0.788453
0.276588
0.789263
0.139818
0.788418
0.276593
0.139795
0.135360
0.809106
0.794079
0.788357
0.788052
0.139830
0.789112
0.128567
0.788480
0.139769
0.128630
0.128579
0.139812
0.276588
0.139763
0.128650
0.209716
0.788390
0.128630
0.788462
0.788473
0.128622
0.139763
0.788357
0.129224
0.139795
0.139769
0.128616
0.139815
0.128671
0.135360
0.139830
0.788403
0.789112
0.128672
0.788429
0.771953
0.139818
0.128672
0.139818
0.128622
0.808971
0.135955
0.139852
0.276588
0.788357
0.809106
0.808970
0.788394
0.787771
0.139812
0.789112
0.788477
0.129165
0.139795
0.788399
0.788372
0.139830
0.129371
0.128622
0.276588
0.139815
0.139812
0.139812
0.789112
0.128655
0.788189
0.809052
0.128655
0.809003
0.135360
0.128567
0.139815
0.139909
0.129165
0.139769
0.128650
0.276635
0.788459
0.128588
0.128599
0.129224
0.139763
0.140046
0.135955
0.139815
0.128655
0.139830
0.135360
0.276588
0.139803
0.788464
0.139830
0.788333
0.128588
0.128622
0.139803
0.139763
0.788423
0.128650
0.128671
0.128599
0.129165
0.128655
0.139887
0.139812
0.128599
0.128616
0.276588
0.128563
0.128616
0.788424
0.809035
0.139803
0.139843
0.128622
0.276588
0.276588
0.128629
0.789492
0.139830
0.139849
0.808484
0.128672
0.788399
0.139818
0.789492
0.128622
0.128629
0.788476
0.788398
0.128622
0.139830
0.787834
0.788117
0.128589
0.128629
0.788013
0.130173
0.170684
0.128655
0.139812
0.139812
0.139763
0.128700
0.139795
0.128613
0.788458
0.788387
0.128650
0.128567
0.128563
0.128672
0.128567
0.788501
0.788357
0.128655
0.129165
0.128629
0.139830
0.128589
0.139830
0.788324
0.788468
0.782966
0.128563
0.276698
0.139830
0.128630
0.209637
0.788357
0.446497
0.787812
0.128599
0.129165
0.128567
0.276518
0.128563
0.139861
0.128672
0.128613
0.128655
0.139803
0.140046
0.788424
0.139793
0.128655
0.789263
0.788453
0.788471
0.788489
0.139815
0.128629
0.128655
0.128599
0.788173
0.209628
0.139793
0.788357
0.139815
0.276588
0.788448
0.788387
0.128672
0.788434
0.128671
0.128613
0.788437
0.139815
0.788410
0.140046
0.139830
0.793902
0.807576
0.139815
0.128644
0.139909
0.788377
0.128629
0.788367
0.653230
0.128630
0.128589
0.128588
0.128622
0.128599
0.128569
0.789112
0.788477
0.788402
0.128655
0.139815
0.128567
0.788477
0.130173
0.788357
0.128622
0.788476
0.139803
0.181795
0.128629
0.135360
0.139788
0.276591
0.788401
0.139789
0.128567
0.139803
0.139887
0.209744
0.788324
0.139830
0.128629
0.139793
0.128599
0.139852
0.139803
0.140046
0.128613
0.788367
0.139763
0.128655
0.139789
0.128599
0.128629
0.139812
0.139815
0.788052
0.128672
0.139803
0.276588
0.139815
0.128671
0.788448
0.139830
0.139803
0.788357
0.788439
0.128629
0.139803
0.128599
0.788228
0.276683
0.809060
0.276598
0.128599
0.135360
0.128651
0.139795
0.128671
0.139812
0.170684
0.139861
0.128651
0.128628
0.130173
0.789112
0.128629
0.788433
0.128655
0.788374
0.128672
0.128651
0.139812
0.788439
0.128613
0.788477
0.128599
0.128655
0.276662
0.276500
0.128650
0.128689
0.789263
0.788117
0.139803
0.140046
0.128567
0.276588
0.788468
0.139812
0.139852
0.128628
0.276698
0.128563
0.139815
0.139763
0.788493
0.128644
0.809039
0.809008
0.788493
0.128616
0.181795
0.809052
0.139795
0.128655
0.139793
0.129165
0.128671
0.139861
0.139830
0.788350
0.789112
0.128655
0.788357
0.139812
0.788393
0.139909
0.139812
0.128684
0.207865
0.139818
0.128589
0.788324
0.128589
0.128616
0.788433
0.139830
0.788395
0.139830
0.139812
0.788359
0.139849
0.128672
0.128630
0.139788
0.128567
0.139909
0.128671
0.788363
0.139830
0.139830
0.128672
0.128672
0.129165
0.795875
0.276588
0.788430
0.139788
0.798903
0.788509
0.135060
0.788324
0.788373
0.789112
0.788480
0.139803
0.788400
0.139795
0.790951
0.128599
0.128569
0.788394
0.129371
0.789112
0.128655
0.128629
0.139812
0.788453
0.128622
0.128589
0.282439
0.139812
0.128616
0.128599
0.789112
0.139812
0.788117
0.802568
0.128613
0.615375
0.139830
0.804239
0.128689
0.788444
0.139909
0.128655
0.139852
0.128629
0.128569
0.139789
0.139793
0.128629
0.128672
0.139788
0.787985
0.788477
0.788432
0.791007
0.139788
0.139815
0.788423
0.788357
0.128655
0.128650
0.128671
0.139803
0.808652
0.128655
0.129165
0.140046
0.788415
0.788396
0.128651
0.128671
0.276588
0.788494
0.128616
0.140046
0.139830
0.128651
0.128622
0.128629
0.789112
0.128622
0.139812
0.139815
0.128629
0.128629
0.788326
0.788504
0.789112
0.139812
0.129165
0.128655
0.128613
0.276588
0.291922
0.788455
0.128616
0.128622
0.128672
0.788431
0.788465
0.139877
0.788494
0.139793
0.128599
0.129371
0.128671
0.788417
0.139887
0.378839
0.788427
0.128563
0.128588
0.276588
0.276570
0.139909
0.276588
0.276507
0.788394
0.128622
0.276588
0.788357
0.128671
0.788357
0.128629
0.788473
0.276598
0.788357
0.128630
0.139818
0.139812
0.128616
0.129165
0.789112
0.139830
0.128651
0.128567
0.809052
0.789263
0.129165
0.128671
0.128700
0.128616
0.128650
0.128655
0.139815
0.128567
0.128567
0.792455
0.181795
0.128655
0.128579
0.788453
0.128616
0.128671
0.139849
0.128629
0.808977
0.139849
0.128599
0.128599
0.788469
0.139815
0.788393
0.139852
0.276588
0.140046
0.209716
0.128630
0.139815
0.139812
0.128671
0.139789
0.128567
0.789112
0.793902
0.128588
0.129165
0.139793
0.139812
0.128655
0.128569
0.128655
0.788357
0.788381
0.793902
0.788458
0.788506
0.787805
0.139815
0.128672
0.788357
0.788489
0.788476
0.129371
0.139815
0.139812
0.139815
0.788390
0.128651
0.788439
0.788469
0.394737
0.128629
0.128671
0.139849
0.129371
0.788392
0.788464
0.788415
0.139812
0.787943
0.139769
0.788467
0.139852
0.139830
0.128567
0.181795
0.276588
0.128628
0.128589
0.135060
0.170684
0.788419
0.276588
0.129165
0.128684
0.139861
0.128629
0.139812
0.809039
0.789112
0.128651
0.170684
0.128613
0.128622
0.128563
0.276518
0.139830
0.128622
0.128629
0.139815
0.139803
0.139830
0.209637
0.788466
0.139803
0.788467
0.139763
0.139815
0.129165
0.139812
0.276588
0.128628
0.128651
0.128629
0.788414
0.128599
0.788397
0.170684
0.788452
0.139815
0.139815
0.128655
0.139812
0.207865
0.788117
0.788422
0.129165
0.139815
0.128616
0.128613
0.791108
0.788458
0.276611
0.130173
0.139843
0.128567
0.788430
0.129165
0.128651
0.128655
0.788398
0.139803
0.128579
0.129165
0.128655
0.128628
0.130173
0.788398
0.788350
0.788362
0.139788
0.139815
0.788468
0.788506
0.128567
0.507724
0.139763
0.139788
0.128563
0.789263
0.128588
0.798221
0.128655
0.788463
0.788182
0.209744
0.129371
0.139849
0.128651
0.128613
0.135360
0.788494
0.139803
0.128563
0.276591
0.787834
0.139795
0.128588
0.128567
0.128599
0.139815
0.128622
0.128622
0.128613
0.788530
0.276588
0.128613
0.788445
0.139803
0.809003
0.207865
0.788335
0.128655
0.128651
0.790951
0.139795
0.806257
0.128567
0.128622
0.128613
0.128622
0.128599
0.128672
0.789112
0.788361
0.276624
0.788372
0.128613
0.788357
0.139815
0.128671
0.788464
0.788477
0.128651
0.788390
0.788390
0.139803
0.128671
0.128629
0.129165
0.788392
0.789112
0.128616
0.129165
0.790951
0.139852
0.788451
0.788357
0.128651
0.276588
0.209759
0.128613
0.788355
0.139789
0.276588
0.771953
0.128651
0.793047
0.788325
0.128655
0.129371
0.128672
0.139830
0.128655
0.788432
0.128629
0.788424
0.139815
0.789112
0.128629
0.139812
0.128599
0.788363
0.128655
0.128644
0.128655
0.788304
0.139843
0.791007
0.788357
0.139830
0.128622
0.788390
0.128622
0.782966
0.788431
0.128630
0.135060
0.139887
0.128599
0.128671
0.139849
0.788390
0.139803
0.128655
0.128629
0.128671
0.128700
0.139830
0.128629
0.128629
0.139877
0.128650
0.139812
0.788431
0.139812
0.128671
0.787908
0.788433
0.128622
0.128613
0.139830
0.788393
0.128616
0.128684
0.139803
0.788387
0.788357
0.788381
0.135360
0.139769
0.788390
0.788431
0.788324
0.276588
0.128622
0.276588
0.276588
0.788333
0.803603
0.128622
0.129165
0.139812
0.139789
0.788477
0.788414
0.129165
0.209759
0.788477
0.788476
0.809053
0.276588
0.139815
0.276588
0.129224
0.139769
0.128671
0.139849
0.787948
0.128599
0.139803
0.139843
0.209742
0.139843
0.139830
0.128629
0.128655
0.128671
0.788399
0.129165
0.139815
0.128700
0.128628
0.128569
0.128567
0.139815
0.788430
0.128630
0.139830
0.209759
0.139769
0.788480
0.139789
0.128622
0.788394
0.128622
0.128588
0.139818
0.139812
0.128629
0.129165
0.128684
0.128650
0.129165
0.128599
0.128629
0.446497
0.128613
0.139815
0.128630
0.788402
0.209628
0.128622
0.139909
0.128563
0.808971
0.128616
0.788394
0.788357
0.788464
0.788357
0.128563
0.139815
0.139909
0.128655
0.276588
0.139815
0.181795
0.790951
0.788354
0.129165
0.129224
0.788357
0.139803
0.128650
0.788387
0.139909
0.789112
0.788491
0.788357
0.128655
0.139815
0.139849
0.170684
0.139815
0.128616
0.139812
0.170684
0.139815
0.140046
0.788464
0.128628
0.128671
0.128567
0.128629
0.129371
0.128567
0.788553
0.135360
0.139763
0.788350
0.128613
0.128630
0.789112
0.139830
0.276588
0.788373
0.128613
0.788454
0.128599
0.139815
0.788433
0.209742
0.128567
0.139803
0.788181
0.139830
0.276588
0.139815
0.128650
0.128671
0.128613
0.135360
0.128599
0.139815
0.128599
0.129165
0.788359
0.128684
0.128629
0.276588
0.276588
0.129165
0.788429
0.788325
0.128616
0.788390
0.788390
0.128651
0.207865
0.128650
0.129165
0.128599
0.788381
0.788423
0.128613
0.788477
0.128651
0.128671
0.788333
0.128579
0.139788
0.128567
0.128629
0.129165
0.788394
0.139812
0.128650
0.139812
0.276588
0.139849
0.128655
0.139849
0.788357
0.788464
0.809052
0.128671
0.128599
0.128671
0.128630
0.789112
0.276588
0.209628
0.139812
0.128599
0.128650
0.128655
0.209759
0.128599
0.128567
0.139909
0.788392
0.276542
0.139818
0.128613
0.139818
0.139803
0.170684
0.788494
0.793047
0.788399
0.788390
0.128628
0.788494
0.788459
0.139795
0.788393
0.139788
0.788258
0.793047
0.128672
0.139763
0.128622
0.181795
0.788490
0.128622
0.128622
0.788464
0.128589
0.788489
0.128684
0.128655
0.788394
0.139769
0.788477
0.139830
0.788473
0.209742
0.128567
0.788357
0.139815
0.276588
0.128567
0.139815
0.276588
0.788408
0.788438
0.788398
0.128655
0.809035
0.128671
0.788390
0.139852
0.788414
0.788093
0.788464
0.128613
0.135360
0.139852
0.128655
0.788414
0.128616
0.139843
0.128629
0.129371
0.128644
0.139803
0.788432
0.128655
0.128629
0.128630
0.788430
0.276588
0.139909
0.128671
0.128672
0.128671
0.788304
0.139815
0.788463
0.139793
0.139830
0.128622
0.128622
0.787781
0.788472
0.139830
0.128629
0.403655
0.128672
0.128628
0.128569
0.128655
0.139812
0.128651
0.276553
0.128567
0.809046
0.139830
0.139909
0.128613
0.128671
0.128655
0.139803
0.128567
0.139803
0.788429
0.788367
0.128629
0.139849
0.788494
0.128589
0.128616
0.808652
0.128599
0.129371
0.139803
0.787828
0.276588
0.128589
0.788357
0.788424
0.788466
0.128622
0.788393
0.209744
0.128672
0.170684
0.128599
0.788357
0.128655
0.128671
0.782966
0.139815
0.128655
0.788395
0.789112
0.128629
0.788449
0.139830
0.788247
0.128628
0.128613
0.808442
0.128650
0.139830
0.791108
0.128629
0.128628
0.128629
0.788429
0.139763
0.128569
0.129371
0.276588
0.276572
0.139803
0.788357
0.276588
0.276588
0.139830
0.209628
0.128651
0.788489
0.139877
0.128671
0.788357
0.181795
0.139849
0.139815
0.135360
0.139803
0.788458
0.128622
0.128613
0.209759
0.128622
0.788397
0.128589
0.170684
0.139803
0.139815
0.139788
0.788431
0.788357
0.788357
0.128599
0.209744
0.276588
0.788553
0.128589
0.128622
0.128613
0.788092
0.128628
0.128671
0.788135
0.139795
0.788414
0.128655
0.276588
0.788390
0.139763
0.139815
0.128613
0.139852
0.130173
0.788477
0.128689
0.139815
0.128689
0.128655
0.128671
0.788464
0.139815
0.788092
0.276591
0.788398
0.789263
0.128567
0.276611
0.788491
0.139815
0.135360
0.788506
0.788355
0.276588
0.139788
0.139803
0.788350
0.789112
0.788390
0.139788
0.788203
0.128671
0.788467
0.615375
0.130173
0.788471
0.209759
0.128622
0.788437
0.139815
0.789112
0.139793
0.135360
0.139849
0.788390
0.139812
0.139795
0.128589
0.788493
0.140046
0.787823
0.129371
0.129165
0.789112
0.128672
0.139815
0.139763
0.788357
0.130173
0.207865
0.207865
0.128569
0.128672
0.788468
0.135360
0.128616
0.139861
0.128651
0.128655
0.789112
0.128588
0.788357
0.128622
0.128672
0.128588
0.128672
0.128655
0.128629
0.139843
0.788464
0.276671
0.789112
0.128672
0.139803
0.209744
0.788181
0.789112
0.129165
0.128589
0.139849
0.128629
0.139861
0.128629
0.139818
0.128630
0.276588
0.139830
0.788462
0.129371
0.128655
0.129165
0.788357
0.276588
0.789112
0.788429
0.276588
0.788424
0.139795
0.128629
0.349100
0.128644
0.128684
0.139830
0.128700
0.787772
0.276518
0.128622
0.129224
0.789112
0.788390
0.802568
0.804239
0.139763
0.129224
0.128567
0.139815
0.128579
0.128616
0.129371
0.128588
0.181795
0.209716
0.139812
0.277641
0.128616
0.128599
0.788304
0.139849
0.788398
0.139815
0.128672
0.139849
0.139815
0.129165
0.789112
0.788372
0.128655
0.139803
0.139793
0.128622
0.139830
0.788476
0.128613
0.139830
0.788357
0.276518
0.788463
0.129224
0.792455
0.128650
0.276619
0.760355
0.788432
0.209637
0.788448
0.250103
0.128629
0.135060
0.788357
0.139909
0.128700
0.789112
0.128629
0.139830
0.128672
0.139763
0.128599
0.128671
0.788467
0.139909
0.128655
0.139830
0.128671
0.128655
0.139830
0.789112
0.788381
0.128622
0.128629
0.276588
0.809046
0.128629
0.139815
0.789112
0.128613
0.788377
0.276695
0.129224
0.128689
0.128622
0.789112
0.128628
0.139815
0.128671
0.128613
0.139803
0.808971
0.128629
0.793902
0.128613
0.276588
0.128616
0.128651
0.276546
0.788288
0.128655
0.139818
0.139818
0.128651
0.128563
0.139815
0.788394
0.139830
0.128672
0.135060
0.788477
0.789112
0.128672
0.139803
0.128629
0.139815
0.139887
0.276588
0.787944
0.135360
0.788439
0.128599
0.789112
0.809052
0.788430
0.788492
0.209759
0.128672
0.788454
0.129165
0.140046
0.789112
0.788429
0.128655
0.128651
0.129224
0.788431
0.787829
0.139788
0.139818
0.615375
0.788424
0.139909
0.276588
0.788477
0.139812
0.128630
0.128629
0.139812
0.128629
0.276588
0.128579
0.139861
0.388504
0.139852
0.140046
0.129371
0.128589
0.788357
0.808652
0.788249
0.791007
0.128613
0.788335
0.139769
0.788374
0.128628
0.788405
0.790951
0.128671
0.139803
0.788412
0.789112
0.788394
0.128599
0.276588
0.139818
0.139909
0.135060
0.788477
0.135360
0.276588
0.139788
0.615375
0.128567
0.128700
0.139803
0.788124
0.139815
0.128599
0.788357
0.209759
0.209744
0.128629
0.139877
0.128655
0.135360
0.788477
0.788466
0.788482
0.128599
0.139803
0.788477
0.128650
0.139909
0.128630
0.139830
0.139830
0.128589
0.128628
0.788357
0.128567
0.139815
0.276588
0.128622
0.128684
0.788454
0.139812
0.788464
0.128671
0.139877
0.128622
0.788324
0.139815
0.788402
0.788375
0.789112
0.788510
0.788476
0.139793
0.129165
0.788435
0.128700
0.139830
0.129165
0.139830
0.790951
0.139818
0.789263
0.139830
0.128622
0.128630
0.128672
0.139803
0.128655
0.128672
0.128644
0.788401
0.788446
0.128563
0.139887
0.139818
0.128616
0.209628
0.128589
0.789263
0.139803
0.170684
0.446497
0.129371
0.209628
0.139789
0.276588
0.793902
0.128655
0.788416
0.128589
0.276651
0.276588
0.788377
0.139788
0.788458
0.135360
0.135955
0.139852
0.139812
0.788373
0.788467
0.139843
0.128616
0.804239
0.276588
0.128650
0.181795
0.209628
0.789112
0.128672
0.128650
0.128655
0.128622
0.128655
0.139830
0.788357
0.128650
0.128569
0.139861
0.788424
0.788463
0.139830
0.128629
0.808959
0.128628
0.128651
0.802568
0.139812
0.789112
0.789492
0.128613
0.128630
0.139849
0.139803
0.139909
0.128672
0.788464
0.276671
0.128629
0.803603
0.128599
0.128616
0.135955
0.139815
0.128622
0.788510
0.139815
0.139812
0.128672
0.128655
0.788117
0.507724
0.128672
0.788495
0.128700
0.139815
0.128616
0.139803
0.139803
0.140046
0.139909
0.276588
0.788357
0.788471
0.276588
0.809115
0.128655
0.139830
0.788462
0.128672
0.209716
0.128650
0.181795
0.128616
0.139812
0.276588
0.128629
0.788470
0.128671
0.128650
0.139812
0.788423
0.139769
0.130173
0.139788
0.139788
0.128629
0.128588
0.128567
0.128671
0.788357
0.788462
0.128629
0.128684
0.789112
0.128671
0.787829
0.788458
0.139830
0.128589
0.788324
0.788357
0.789112
0.788398
0.128655
0.139812
0.139887
0.128651
0.276588
0.276588
0.139769
0.139812
0.788357
0.788466
0.788373
0.788464
0.139815
0.788357
0.128622
0.653230
0.128589
0.139887
0.788433
0.129224
0.128613
0.128599
0.788468
0.788390
0.128689
0.139830
0.788414
0.139830
0.276588
0.276588
0.128650
0.128569
0.139812
0.139852
0.788357
0.788429
0.139849
0.139803
0.139803
0.788408
0.139815
0.130173
0.788395
0.139795
0.181795
0.645302
0.129371
0.139803
0.788326
0.128622
0.128630
0.139830
0.128588
0.788431
0.788458
0.788357
0.139849
0.788434
0.128567
0.788419
0.276624
0.788393
0.128629
0.128589
0.128628
0.209742
0.140046
0.788444
0.128613
0.129165
0.139812
0.276588
0.128655
0.128630
0.129165
0.789112
0.788423
0.276588
0.139818
0.140046
0.139815
0.128671
0.139763
0.788446
0.276588
0.128655
0.139763
0.276630
0.795875
0.139803
0.276588
0.788361
0.128616
0.276588
0.788394
0.128629
0.139877
0.128567
0.788357
0.787908
0.135360
0.135360
0.139803
0.788173
0.128599
0.128567
0.135360
0.128671
0.788474
0.128613
0.170684
0.788480
0.128655
0.128613
0.139803
0.788477
0.128651
0.128644
0.139830
0.139843
0.128599
0.129371
0.787927
0.128567
0.128622
0.139769
0.139803
0.128567
0.128651
0.128589
0.139830
0.139803
0.128622
0.128629
0.128599
0.807497
0.209759
0.788382
0.276588
0.276588
0.128567
0.139909
0.276588
0.789112
0.128671
0.128613
0.139812
0.139788
0.128672
0.789112
0.128616
0.128672
0.788397
0.128672
0.788491
0.128629
0.276588
0.788384
0.788489
0.788398
0.128672
0.128630
0.128622
0.135955
0.128599
0.788390
0.808988
0.788361
0.788357
0.139909
0.139849
0.128567
0.139803
0.207865
0.139815
0.128689
0.788398
0.788433
0.128599
0.788464
0.128655
0.128613
0.276557
0.276588
0.139803
0.788454
0.128567
0.276566
0.139812
0.789112
0.129371
0.128622
0.788476
0.788449
0.139830
0.788403
0.788390
0.791108
0.139812
0.139877
0.788470
0.128589
0.128672
0.128599
0.128599
0.788444
0.128700
0.653230
0.128588
0.128684
0.139815
0.129371
0.788398
0.128651
0.276588
0.789112
0.276588
0.788480
0.139812
0.129165
0.793902
0.139815
0.135360
0.139849
0.128616
0.128655
0.788357
0.788474
0.276588
0.788394
0.788414
0.789112
0.135360
0.135360
0.139803
0.139795
0.128588
0.209716
0.128579
0.128616
0.129165
0.128613
0.139830
0.276588
0.135060
0.139830
0.788288
0.128700
0.139803
0.128700
0.128651
0.446497
0.788398
0.139803
0.789112
0.128622
0.139830
0.139815
0.139818
0.128655
0.128613
0.139815
0.129371
0.128655
0.129165
0.139788
0.128567
0.139849
0.128655
0.276588
0.128655
0.139815
0.276598
0.139812
0.140046
0.128655
0.788603
0.128672
0.128628
0.139815
0.788357
0.128629
0.181795
0.139803
0.276684
0.139818
0.139812
0.128655
0.128651
0.128589
0.128671
0.128567
0.209744
0.789112
0.139812
0.128622
0.128622
0.276624
0.276588
0.788390
0.170684
0.128629
0.788459
0.788463
0.129165
0.128629
0.139909
0.128630
0.128589
0.788464
0.645302
0.128672
0.788377
0.788357
0.139887
0.128671
0.446497
0.139793
0.128567
0.788390
0.788464
0.645302
0.250103
0.788553
0.139830
0.788378
0.788357
0.139830
0.139793
0.209742
0.129165
0.788381
0.128613
0.128567
0.139815
0.276588
0.788397
0.128629
0.128672
0.128589
0.128671
0.209637
0.809008
0.139815
0.808977
0.760355
0.139830
0.139815
0.139815
0.209628
0.788433
0.128579
0.128567
0.139818
0.128655
0.788357
0.128567
0.139843
0.788415
0.128630
0.128599
0.789112
0.139763
0.139830
0.139887
0.139803
0.139909
0.128589
0.139789
0.788439
0.790951
0.788181
0.128671
0.128630
0.128655
0.135360
0.128630
0.135955
0.276588
0.788357
0.128651
0.788390
0.139815
0.128651
0.139861
0.139861
0.128671
0.788381
0.128655
0.788357
0.139812
0.128700
0.788476
0.128567
0.276588
0.170684
0.139830
0.129165
0.139830
0.128671
0.139812
0.787908
0.128630
0.760355
0.135955
0.788417
0.139812
0.788390
0.139815
0.139830
0.788357
0.128569
0.788446
0.129165
0.139803
0.128655
0.129165
0.788464
0.139812
0.128651
0.139830
0.128613
0.788432
0.140046
0.788480
0.788457
0.181795
0.139815
0.139815
0.181795
0.276588
0.808970
0.788398
0.789112
0.788495
0.139815
0.276588
0.181795
0.128613
0.788357
0.128671
0.789112
0.128629
0.139830
0.128613
0.789112
0.129224
0.794079
0.128629
0.139812
0.129371
0.128629
0.788454
0.129165
0.139909
0.276588
0.139815
0.139795
0.128655
0.139909
0.139830
0.788462
0.128655
0.139909
0.789112
0.788431
0.788420
0.128622
0.788467
0.139830
0.209716
0.128616
0.788471
0.250103
0.276588
0.788357
0.139793
0.128588
0.128655
0.128689
0.788390
0.128672
0.276683
0.788457
0.128629
0.139795
0.788357
0.808442
0.788357
0.128589
0.139887
0.130173
0.789112
0.788424
0.128629
0.128644
0.139909
0.130173
0.139849
0.788438
0.788453
0.139788
0.276567
0.128567
0.128672
0.128629
0.128655
0.788446
0.788357
0.788357
0.128655
0.788393
0.128671
0.276593
0.787913
0.789112
0.128567
0.276588
0.788477
0.653230
0.139769
0.139795
0.128700
0.139788
0.128630
0.139788
0.276588
0.788357
0.128622
0.128629
0.128650
0.788431
0.139815
0.129371
0.128644
0.128567
0.790951
0.128650
0.139803
0.139852
0.129371
0.788396
0.209628
0.139830
0.128589
0.788401
0.135360
0.130173
0.788489
0.788419
0.128616
0.139830
0.788428
0.129165
0.276588
0.139818
0.128622
0.139852
0.788357
0.789112
0.788459
0.788437
0.135955
0.139843
0.128644
0.788357
0.788480
0.128629
0.788357
0.788430
0.139830
0.788373
0.788432
0.139812
0.276588
0.788390
0.130173
0.788510
0.788333
0.788247
0.139852
0.788448
0.139769
0.128622
0.788381
0.128567
0.276698
0.139830
0.788473
0.787772
0.276588
0.792455
0.788381
0.209759
0.788474
0.139788
0.128651
0.139849
0.787419
0.788390
0.128650
0.788467
0.128622
0.276588
0.129165
0.808442
0.128671
0.139830
0.139815
0.128599
0.276548
0.209637
0.128630
0.788357
0.276588
0.788399
0.128629
0.128689
0.788390
0.788360
0.788477
0.139830
0.129165
0.128644
0.788210
0.128651
0.276588
0.207865
0.128644
0.129165
0.139763
0.128616
0.788475
0.788395
0.129165
0.788390
0.789112
0.789263
0.130173
0.276656
0.139763
0.788474
0.788172
0.139812
0.128628
0.139849
0.250103
0.276588
0.128613
0.139909
0.788432
0.788433
0.128655
0.139812
0.788530
0.128563
0.789263
0.181795
0.789112
0.139877
0.139830
0.789112
0.139795
0.135360
0.139812
0.128622
0.139803
0.128622
0.788477
0.135360
0.139830
0.128651
0.128613
0.790951
0.139803
0.788400
0.129371
0.798221
0.128671
0.139803
0.209744
0.128567
0.139830
0.128629
0.128684
0.276572
0.140046
0.788530
0.128630
0.139812
0.788375
0.788390
0.209744
0.789112
0.128599
0.788424
0.128629
0.128563
0.789112
0.788466
0.209716
0.139795
0.128613
0.139849
0.788427
0.446497
0.128672
0.128629
0.209637
0.276518
0.128650
0.128644
0.788373
0.139861
0.128629
0.128655
0.128684
0.276588
0.128700
0.653230
0.788374
0.140046
0.809060
0.788350
0.128613
0.787927
0.128616
0.181795
0.139812
0.128589
0.788343
0.788509
0.809008
0.128630
0.209742
0.139830
0.128630
0.808442
0.139815
0.788381
0.139803
0.128599
0.128622
0.128589
0.129371
0.209759
0.809035
0.788429
0.128700
0.139818
0.139843
0.128655
0.788412
0.139815
0.788333
0.789112
0.498002
0.128700
0.139803
0.128613
0.129165
0.129165
0.128644
0.139830
0.128655
0.782966
0.128616
0.788472
0.791007
0.139788
0.788408
0.139909
0.139852
0.139815
0.128588
0.128684
0.139815
0.789112
0.788357
0.139788
0.128644
0.129165
0.128644
0.788357
0.128616
0.135955
0.803603
0.788357
0.129371
0.788483
0.788399
0.128622
0.788398
0.276612
0.128567
0.139812
0.139830
0.789112
0.139815
0.128599
0.139803
0.789112
0.128655
0.788390
0.788495
0.128628
0.128616
0.139830
0.276591
0.797609
0.139830
0.276588
0.128672
0.788491
0.128569
0.793047
0.128655
0.128671
0.139812
0.128655
0.139812
0.139815
0.139877
0.128644
0.139830
0.170684
0.788412
0.128567
0.139812
0.128629
0.788417
0.139812
0.139909
0.128650
0.139793
0.128672
0.788429
0.788431
0.128629
0.139815
0.276588
0.788506
0.128589
0.128622
0.128630
0.128563
0.128629
0.128616
0.807576
0.139815
0.139812
0.788473
0.378839
0.276588
0.209744
0.135360
0.128655
0.128599
0.276588
0.789112
0.139803
0.139803
0.128700
0.128672
0.139769
0.788390
0.789112
0.128579
0.128655
0.128655
0.128672
0.139803
0.139815
0.128689
0.788431
0.788449
0.128644
0.788445
0.128589
0.128613
0.128622
0.788399
0.181795
0.788401
0.135360
0.139815
0.128599
0.128655
0.798221
0.128616
0.139815
0.789112
0.789112
0.128672
0.788430
0.139815
0.128563
0.139852
0.139812
0.139815
0.788357
0.276588
0.139795
0.788357
0.446497
0.128622
0.128672
0.139815
0.788399
0.128613
0.128622
0.788477
0.276507
0.507724
0.128644
0.128672
0.128655
0.788010
0.789112
0.809039
0.128589
0.788397
0.139849
0.128588
0.128689
0.129165
0.446497
0.209628
0.788453
0.788357
0.128630
0.139830
0.788429
0.276588
0.139830
0.128655
0.128630
0.788429
0.788430
0.139830
0.788357
0.128655
0.128563
0.209628
0.128599
0.128622
0.128651
0.209637
0.139815
0.139763
0.788361
0.128629
0.128655
0.135955
0.140046
0.276588
0.790182
0.128700
0.128616
0.128655
0.787829
0.788446
0.128655
0.276588
0.128622
0.139830
0.788477
0.788357
0.788394
0.808970
0.129165
0.788432
0.139843
0.128650
0.139818
0.788464
0.788357
0.128700
0.128567
0.128655
0.128569
0.276698
0.128616
0.788476
0.139830
0.788411
0.789112
0.787998
0.139818
0.128672
0.788117
0.209716
0.139852
0.128622
0.139812
0.128671
0.139812
0.139812
0.139830
0.128613
0.789112
0.788493
0.139887
0.809035
0.128622
0.129165
0.139849
0.788258
0.128588
0.128630
0.789112
0.139789
0.128672
0.788330
0.139815
0.209716
0.139795
0.139815
0.128589
0.139815
0.139830
0.788453
0.788482
0.130173
0.788350
0.128616
0.209637
0.128588
0.130173
0.788399
0.209759
0.135955
0.788399
0.128655
0.128671
0.276612
0.128569
0.788333
0.128629
0.139812
0.789112
0.788553
0.276588
0.788453
0.128589
0.139795
0.128622
0.139830
0.139793
0.128622
0.789112
0.128563
0.139830
0.129165
0.128684
0.793902
0.139789
0.128629
0.788350
0.788381
0.128655
0.788480
0.128588
0.128655
0.128644
0.789112
0.789112
0.139803
0.446497
0.139830
0.128589
0.139793
0.135360
0.788390
0.139818
0.139812
0.128700
0.788467
0.128671
0.788444
0.446497
0.128644
0.788390
0.128616
0.129371
0.139843
0.276588
0.788414
0.788489
0.135360
0.788491
0.128655
0.139909
0.139769
0.128672
0.139849
0.128616
0.788357
0.139815
0.276588
0.276588
0.128622
0.808988
0.128672
0.139830
0.139861
0.788189
0.788399
0.129224
0.128613
0.276511
0.128622
0.209742
0.139830
0.128629
0.128567
0.128655
0.276619
0.788324
0.128689
0.128650
0.135955
0.209744
0.788138
0.139812
0.788502
0.788432
0.788453
0.139887
0.788480
0.128644
0.788425
0.128588
0.128671
0.139795
0.788464
0.794079
0.129165
0.128655
0.276588
0.139815
0.788419
0.139815
0.128616
0.128599
0.276588
0.209628
0.139795
0.139830
0.128616
0.139812
0.276683
0.128630
0.139830
0.771953
0.128655
0.128672
0.139803
0.788697
0.128616
0.128672
0.789112
0.788494
0.788479
0.788466
0.128613
0.788372
0.128655
0.209628
0.276621
0.209637
0.788373
0.276588
0.788429
0.139795
0.788249
0.788478
0.128588
0.207865
0.788697
0.128671
0.276588
0.788357
0.128613
0.788330
0.128622
0.788381
0.139861
0.139803
0.128622
0.128629
0.276588
0.209759
0.128655
0.128613
0.788371
0.808959
0.207865
0.129165
0.129165
0.128629
0.128630
0.209742
0.788357
0.276588
0.446497
0.128655
0.788506
0.788476
0.139812
0.128622
0.139830
0.276566
0.788463
0.139830
0.139815
0.139815
0.128671
0.788491
0.788424
0.139887
0.128672
0.128650
0.653230
0.128563
0.135060
0.788423
0.139843
0.139803
0.128671
0.135360
0.789112
0.446497
0.788479
0.129165
0.276588
0.129224
0.788357
0.135060
0.276588
0.788399
0.788480
0.788357
0.128651
0.128622
0.128616
0.788398
0.139763
0.139849
0.788553
0.139803
0.788424
0.128567
0.789112
0.128655
0.128630
0.128622
0.789112
0.806257
0.807497
0.788361
0.128622
0.615375
0.128700
0.128563
0.276588
0.788483
0.139852
0.128672
0.128700
0.139849
0.128588
0.128589
0.129165
0.788431
0.139852
0.809044
0.789112
0.128650
0.788494
0.809060
0.140046
0.788431
0.128629
0.128588
0.809017
0.209742
0.128655
0.446497
0.128672
0.128630
0.129371
0.128622
0.128651
0.128671
0.128588
0.789112
0.128599
0.139852
0.788210
0.139830
0.788414
0.789112
0.139830
0.276588
0.129165
0.130173
0.809037
0.139815
0.139803
0.788357
0.788417
0.139803
0.788464
0.128599
0.140046
0.788464
0.128629
0.128616
0.798903
0.128589
0.788466
0.128630
0.128629
0.128579
0.788464
0.788469
0.788425
0.128651
0.139830
0.170684
0.139815
0.139849
0.128629
0.139843
0.128567
0.129165
0.139812
0.139830
0.128630
0.276588
0.128655
0.139812
0.809046
0.808971
0.139818
0.128655
0.788452
0.788357
0.128599
0.128655
0.788424
0.128567
0.139803
0.128589
0.788464
0.128655
0.128700
0.788372
0.139795
0.139815
0.139843
0.135955
0.139812
0.139803
0.128567
0.276515
0.276588
0.128613
0.788510
0.139843
0.139830
0.789112
0.139763
0.139803
0.128616
0.128588
0.788011
0.128651
0.140046
0.128629
0.128651
0.209628
0.139852
0.170684
0.788357
0.128599
0.128567
0.788439
0.128622
0.139818
0.653230
0.645302
0.128651
0.129371
0.128567
0.139843
0.128622
0.789112
0.128671
0.128567
0.139830
0.129371
0.276588
0.128630
0.135360
0.139815
0.788463
0.276671
0.139795
0.789263
0.129371
0.788424
0.788473
0.128671
0.788458
0.788453
0.139795
0.788494
0.788357
0.276572
0.128672
0.128567
0.645302
0.128629
0.128650
0.139803
0.128599
0.128655
0.128588
0.128622
0.789112
0.128629
0.128563
0.128567
0.128655
0.128589
0.788357
0.128629
0.128588
0.789112
0.788382
0.128599
0.128622
0.128616
0.128622
0.276684
0.128630
0.128671
0.139830
0.788453
0.139909
0.789112
0.128589
0.129371
0.128629
0.789112
0.786767
0.135360
0.128599
0.128589
0.128622
0.808971
0.128622
0.139830
0.128563
0.139803
0.787805
0.789112
0.788434
0.788464
0.135955
0.276588
0.128589
0.128599
0.135360
0.276588
0.209759
0.788247
0.788390
0.128628
0.139909
0.128599
0.788424
0.809052
0.788375
0.128651
0.788469
0.129165
0.139849
0.139909
0.788398
0.788362
0.135360
0.128599
0.128563
0.128588
0.128622
0.128616
0.139793
0.140046
0.128655
0.139815
0.128622
0.170684
0.139793
0.128613
0.139849
0.128629
0.139803
0.139789
0.788434
0.139830
0.139812
0.135360
0.788430
0.139830
0.139812
0.139815
0.128672
0.140046
0.128567
0.788397
0.128599
0.276588
0.139812
0.128672
0.276563
0.139763
0.140046
0.128629
0.128622
0.139830
0.139909
0.135955
0.139815
0.789112
0.788474
0.795875
0.128671
0.139803
0.788477
0.128700
0.788417
0.788373
0.129371
0.788350
0.788468
0.788530
0.128672
0.139812
0.128567
0.788374
0.128599
0.128616
0.128588
0.139815
0.139830
0.788357
0.788100
0.128616
0.128672
0.788447
0.276566
0.128599
0.788464
0.788372
0.128630
0.128567
0.128671
0.139815
0.209742
0.782966
0.139812
0.128629
0.276588
0.139818
0.788430
0.788324
0.128671
0.130173
0.128588
0.139909
0.139830
0.788451
0.789112
0.209628
0.790951
0.788579
0.140046
0.128629
0.129165
0.129371
0.139789
0.788405
0.128613
0.209744
0.128567
0.128650
0.788417
0.788419
0.788390
0.788398
0.788387
0.139830
0.788427
0.139830
0.139877
0.139843
0.139769
0.276600
0.128616
0.788357
0.139815
0.139812
0.128567
0.128671
0.139812
0.128622
0.128622
0.128629
0.128671
0.788226
0.128630
0.788360
0.135060
0.128672
0.139830
0.139803
0.139803
0.128599
0.139815
0.788357
0.128672
0.128569
0.128599
0.128644
0.139830
0.128651
0.139849
0.129165
0.788433
0.788382
0.139909
0.128613
0.139909
0.140046
0.788357
0.788357
0.139789
0.128630
0.788357
0.209744
0.129165
0.139812
0.139812
0.128622
0.128622
0.789112
0.128629
0.128622
0.788172
0.139830
0.717770
0.128655
0.788247
0.788459
0.140046
0.128655
0.788477
0.139812
0.128589
0.139815
0.139788
0.128629
0.789112
0.276515
0.128630
0.788226
0.276588
0.128630
0.789112
0.788430
0.139830
0.139849
0.209744
0.789112
0.788390
0.788431
0.798903
0.128671
0.139815
0.128629
0.139815
0.788491
0.128613
0.788469
0.788423
0.787068
0.128613
0.139815
0.128589
0.128579
0.128629
0.128655
0.139803
0.128655
0.788400
0.135955
0.128629
0.128563
0.788405
0.788453
0.129371
0.128650
0.129165
0.129371
0.128651
0.128579
0.139803
0.135060
0.789112
0.128613
0.788477
0.128630
0.788449
0.788462
0.139803
0.787955
0.128672
0.139812
0.128616
0.128672
0.788398
0.139849
0.653230
0.128651
0.139793
0.802568
0.788491
0.128567
0.788504
0.139849
0.128589
0.276588
0.128599
0.128671
0.128671
0.139763
0.809046
0.788333
0.139815
0.128671
0.128629
0.788430
0.128700
0.139803
0.128630
0.128629
0.139789
0.276588
0.128672
0.276588
0.128650
0.128599
0.139812
0.139803
0.139812
0.139830
0.788360
0.276588
0.128671
0.788467
0.209744
0.276588
0.795875
0.128567
0.789112
0.128672
0.128563
0.135360
0.139812
0.128672
0.788424
0.139815
0.130173
0.792455
0.788491
0.139803
0.276588
0.139830
0.788010
0.788361
0.789112
0.135360
0.788453
0.788457
0.128644
0.128671
0.128629
0.139812
0.788350
0.788431
0.128651
0.139909
0.209637
0.135360
0.209759
0.139793
0.789112
0.139812
0.128589
0.789112
0.128622
0.789112
0.139803
0.789112
0.788429
0.128700
0.788360
0.788464
0.139763
0.788477
0.139830
0.128567
0.128655
0.139830
0.128567
0.808959
0.789112
0.128599
0.276553
0.128630
0.276588
0.139788
0.128650
0.794079
0.135360
0.128671
0.128655
0.788390
0.789112
0.276588
0.788489
0.128628
0.128671
0.139812
0.788135
0.135360
0.788449
0.139812
0.139803
0.128672
0.139815
0.788357
0.789112
0.128588
0.791007
0.128563
0.209759
0.207865
0.128630
0.128629
0.788504
0.128655
0.788530
0.788350
0.128630
0.139815
0.128613
0.276630
0.128671
0.128616
0.139852
0.139803
0.128599
0.276588
0.128629
0.788357
0.788477
0.129371
0.788359
0.128588
0.788431
0.170684
0.139812
0.128629
0.128630
0.139861
0.139830
0.139830
0.139763
0.276588
0.128629
0.128622
0.128655
0.804239
0.139852
0.209637
0.615375
0.139803
0.139830
0.809035
0.128651
0.250103
0.788373
0.128655
0.128672
0.135360
0.788381
0.139849
0.128629
0.789112
0.128651
0.128616
0.788357
0.129371
0.788431
0.139815
0.128655
0.128671
0.789112
0.128684
0.181795
0.139815
0.139852
0.788459
0.128655
0.792455
0.788325
0.209628
0.276588
0.139803
0.788477
0.128622
0.129165
0.788431
0.129165
0.128613
0.788464
0.789112
0.139812
0.128599
0.139815
0.128588
0.209742
0.128672
0.128567
0.276551
0.788390
0.139830
0.128616
0.809008
0.789112
0.128622
0.135360
0.276588
0.128672
0.128622
0.128655
0.793047
0.128650
0.129165
0.788477
0.139815
0.788401
0.388504
0.139815
0.788371
0.788452
0.128599
0.128672
0.298369
0.788399
0.139803
0.128589
0.128628
0.128579
0.128700
0.128630
0.788400
0.129165
0.139815
0.788429
0.128630
0.139830
0.794079
0.128655
0.128629
0.128599
0.788390
0.788474
0.276557
0.139909
0.128569
0.139789
0.128613
0.139815
0.276588
0.139812
0.788429
0.139830
0.788430
0.793902
0.139815
0.788439
0.788504
0.128655
0.128613
0.789492
0.139830
0.276588
0.128567
0.789112
0.806257
0.789112
0.139815
0.139861
0.209759
0.788367
0.808988
0.128655
0.128567
0.794079
0.788403
0.128630
0.128655
0.139812
0.128579
0.128655
0.128567
0.788357
0.788397
0.139815
0.139909
0.788390
0.139852
0.139769
0.128655
0.128628
0.403655
0.209637
0.209637
0.128613
0.139793
0.128629
0.139849
0.788399
0.789112
0.788469
0.128588
0.789112
0.139803
0.140046
0.276588
0.139815
0.128650
0.128689
0.129165
0.788462
0.139818
0.788451
0.789263
0.788357
0.788438
0.139803
0.139763
0.788530
0.788357
0.276588
0.139815
0.170684
0.276662
0.128628
0.128589
0.128588
0.139830
0.128622
0.788536
0.788374
0.128589
0.128650
0.788477
0.128613
0.128563
0.128655
0.128599
0.788491
0.788463
0.789112
0.276588
0.140046
0.788357
0.181795
0.139793
0.653230
0.128622
0.794079
0.808442
0.139812
0.276588
0.128700
0.128599
0.135360
0.788429
0.139803
0.128589
0.139818
0.771953
0.788357
0.128579
0.128579
0.128616
0.139803
0.139830
0.139812
0.139815
0.139815
0.128655
0.128671
0.787829
0.181795
0.128563
0.403655
0.128613
0.788466
0.128655
0.782966
0.789112
0.128672
0.788473
0.276613
0.788439
0.139830
0.128672
0.128629
0.276591
0.128655
0.128629
0.128567
0.128616
0.128655
0.128629
0.788387
0.788395
0.209742
0.128629
0.788464
0.788400
0.276588
0.128655
0.788011
0.788491
0.276588
0.507724
0.276588
0.788010
0.128671
0.788466
0.129165
0.128613
0.128613
0.128671
0.276671
0.139795
0.788504
0.139909
0.139812
0.806257
0.788476
0.788350
0.139815
0.128622
0.139812
0.788465
0.276588
0.139789
0.128650
0.802568
0.139788
0.139815
0.128630
0.128629
0.788469
0.808988
0.170684
0.771953
0.128700
0.128650
0.170684
0.135360
0.129371
0.276515
0.139815
0.139830
0.139815
0.129165
0.129165
0.789112
0.128616
0.128622
0.209759
0.128622
0.128689
0.276588
0.788506
0.128684
0.170684
0.788418
0.128700
0.276588
0.788398
0.788390
0.788414
0.788427
0.788425
0.128622
0.139818
0.181795
0.139830
0.128616
0.788357
0.128599
0.128622
0.135360
0.128684
0.129165
0.788357
0.788489
0.788451
0.128616
0.139812
0.128630
0.128630
0.128672
0.128622
0.788400
0.277641
0.507724
0.128616
0.128589
0.129165
0.788357
0.128655
0.139909
0.135360
0.793047
0.128655
0.129224
0.128616
0.139818
0.139830
0.209759
0.128689
0.139815
0.128628
0.446497
0.128567
0.128672
0.128644
0.170684
0.129165
0.209637
0.128589
0.788464
0.139803
0.788402
0.760355
0.128672
0.128671
0.128671
0.128655
0.507724
0.128622
0.788463
0.128629
0.128655
0.788390
0.130173
0.139815
0.788467
0.128599
0.139830
0.276542
0.128629
0.276588
0.128684
0.139803
0.209637
0.128622
0.139812
0.139795
0.135360
0.128599
0.128589
0.207865
0.128599
0.139815
0.128630
0.788390
0.128622
0.789112
0.128599
0.139769
0.128569
0.139793
0.209637
0.139812
0.808442
0.128655
0.128588
0.129224
0.139763
0.128616
0.129371
0.139812
0.790951
0.276567
0.809039
0.788504
0.209637
0.139793
0.128613
0.128622
0.128613
0.788504
0.788350
0.139849
0.788457
0.809039
0.128622
0.128630
0.139803
0.788458
0.276671
0.128655
0.787823
0.788397
0.139815
0.128599
0.128567
0.789112
0.209759
0.128622
0.276588
0.209637
0.128650
0.788491
0.128589
0.129165
0.139852
0.128650
0.128599
0.788494
0.135060
0.139909
0.139818
0.128655
0.276588
0.276588
0.128655
0.128599
0.139815
0.139815
0.788357
0.129371
0.793047
0.135955
0.135060
0.788172
0.807758
0.139818
0.788393
0.788394
0.128579
0.139803
0.128616
0.128567
0.139812
0.139763
0.139830
0.128630
0.788357
0.128569
0.788424
0.170684
0.139843
0.139830
0.139849
0.788377
0.135060
0.128589
0.276588
0.128671
0.788417
0.782966
0.128655
0.276588
0.128629
0.788390
0.139803
0.788010
0.128655
0.128563
0.792396
0.793902
0.276588
0.128589
0.789112
0.788405
0.809052
0.128650
0.788494
0.128588
0.808977
0.139861
0.139793
0.128644
0.129165
0.128655
0.789112
0.788430
0.128630
0.788430
0.129371
0.139843
0.788477
0.209637
0.128599
0.128563
0.128599
0.788335
0.128672
0.128599
0.128655
0.128651
0.788431
0.788453
0.139803
0.128630
0.128613
0.139830
0.789112
0.139877
0.788405
0.789112
0.276588
0.128629
0.128588
0.128616
0.276588
0.139793
0.128644
0.128671
0.170684
0.788431
0.788390
0.788367
0.276588
0.128644
0.139793
0.276588
0.128700
0.139843
0.788477
0.788362
0.139803
0.135060
0.128655
0.128630
0.788357
0.139843
0.788357
0.139763
0.139812
0.788238
0.128622
0.128567
0.128616
0.128588
0.209637
0.128672
0.139877
0.128588
0.788390
0.139909
0.788398
0.789112
0.139909
0.788457
0.809046
0.128599
0.788350
0.782966
0.788357
0.139830
0.128672
0.788468
0.771953
0.128671
0.128629
0.789112
0.139803
0.128616
0.128588
0.128567
0.128599
0.128589
0.139812
0.128563
0.789112
0.276588
0.128651
0.128672
0.139815
0.789112
0.788476
0.788429
0.128671
0.128567
0.139887
0.128672
0.128567
0.128622
0.276588
0.788357
0.276662
0.128630
0.128672
0.139812
0.135060
0.807497
0.139818
0.128579
0.789112
0.128671
0.139803
0.140046
0.181795
0.139789
0.139812
0.128655
0.128651
0.139812
0.139849
0.130173
0.788304
0.788400
0.276588
0.788476
0.139812
0.276588
0.128622
0.139812
0.139830
0.788459
0.276588
0.139818
0.129371
0.788357
0.276588
0.276588
0.128671
0.128655
0.139815
0.128655
0.135360
0.128599
0.128651
0.804239
0.139849
0.128671
0.807758
0.209742
0.788402
0.788411
0.139812
0.139812
0.139815
0.139852
0.788429
0.128630
0.791007
0.128599
0.139812
0.128655
0.128589
0.139887
0.128599
0.209716
0.128655
0.788530
0.276588
0.128628
0.128672
0.139803
0.139877
0.788462
0.129165
0.139849
0.128616
0.139852
0.139843
0.139795
0.788357
0.276588
0.139815
0.809044
0.128569
0.181795
0.139849
0.128655
0.139812
0.128613
0.209744
0.139803
0.276566
0.139849
0.788530
0.139815
0.128622
0.128671
0.128589
0.128629
0.128629
0.139818
0.139849
0.788412
0.790951
0.128628
0.788405
0.128672
0.788476
0.789112
0.139861
0.128616
0.128629
0.760355
0.276683
0.128613
0.128622
0.139830
0.128588
0.788418
0.788510
0.353171
0.128671
0.128630
0.279978
0.139830
0.788467
0.128655
0.129165
0.135955
0.128671
0.788357
0.788425
0.788333
0.128622
0.139812
0.788506
0.139830
0.128629
0.139830
0.139815
0.128599
0.788412
0.792455
0.128599
0.788393
0.139818
0.788439
0.770644
0.128672
0.139812
0.276638
0.128579
0.128651
0.128567
0.794330
0.139763
0.789112
0.135360
0.139812
0.789112
0.763511
0.128672
0.788350
0.139849
0.788402
0.139849
0.128655
0.788458
0.139815
0.128567
0.788476
0.788372
0.128629
0.128655
0.128672
0.139877
0.788469
0.128684
0.128630
0.276566
0.788504
0.128616
0.788470
0.128672
0.788429
0.788506
0.139830
0.788390
0.129165
0.276588
0.788411
0.128569
0.128622
0.139909
0.139861
0.128630
0.128567
0.139815
0.139788
0.139909
0.787805
0.128651
0.128628
0.788318
0.128630
0.788476
0.788404
0.128629
0.128671
0.128628
0.135955
0.788434
0.128651
0.788424
0.128616
0.139789
0.128563
0.809106
0.788394
0.788357
0.276683
0.139830
0.139803
0.789112
0.129165
0.788465
0.128622
0.128671
0.128650
0.128655
0.615375
0.128622
0.788357
0.808652
0.788506
0.139815
0.139803
0.139789
0.128689
0.139843
0.787834
0.128622
0.139909
0.788494
0.128628
0.139830
0.130173
0.139803
0.135360
0.788434
0.129165
0.128672
0.128671
0.135360
0.128616
0.139812
0.128563
0.789112
0.788357
0.789112
0.808988
0.139843
0.128567
0.139812
0.128700
0.139769
0.128651
0.139830
0.276588
0.128672
0.128628
0.135360
0.128684
0.615375
0.128630
0.250103
0.804239
0.128672
0.139803
0.128629
0.139852
0.139815
0.139830
0.128700
0.128599
0.128613
0.788357
0.788519
0.788357
0.507724
0.788302
0.789112
0.128655
0.276624
0.139815
0.788390
0.135955
0.809060
0.129165
0.128700
0.128628
0.139803
0.139803
0.129224
0.128622
0.788357
0.789112
0.128672
0.139818
0.788462
0.782966
0.139830
0.788453
0.788445
0.128629
0.139789
0.128672
0.139830
0.788398
0.128616
0.128672
0.788466
0.128616
0.135060
0.128655
0.276588
0.276625
0.788427
0.139815
0.128613
0.139815
0.788390
0.128689
0.128599
0.128671
0.139861
0.128616
0.128589
0.209628
0.128655
0.128655
0.276588
0.276671
0.788357
0.789112
0.128628
0.128655
0.250103
0.789112
0.276588
0.790951
0.139803
0.788390
0.209637
0.128613
0.276548
0.128579
0.788382
0.788414
0.139830
0.788424
0.128567
0.788469
0.128616
0.276624
0.128622
0.788473
0.276619
0.788357
0.788477
0.789112
0.139815
0.128563
0.128599
0.788387
0.128651
0.788489
0.788324
0.139812
0.128672
0.139843
0.128599
0.139815
0.130173
0.129165
0.788326
0.788368
0.788324
0.788357
0.139830
0.139812
0.788381
0.128672
0.128579
0.128629
0.788504
0.128671
0.181795
0.209744
0.788357
0.128616
0.128629
0.128599
0.788448
0.128671
0.788373
0.139909
0.128599
0.128567
0.128616
0.139861
0.128589
0.139861
0.353171
0.139815
0.139812
0.128616
0.128622
0.139843
0.128616
0.128655
0.139843
0.128599
0.788431
0.128630
0.128613
0.139812
0.788375
0.128655
0.788430
0.787927
0.139830
0.763511
0.128622
0.139861
0.139788
0.139830
0.139877
0.128684
0.139812
0.788494
0.129371
0.788403
0.139793
0.788182
0.128655
0.128655
0.788470
0.615375
0.128671
0.788491
0.128567
0.788052
0.788424
0.788477
0.789112
0.139815
0.128622
0.788135
0.128599
0.139812
0.128567
0.139803
0.788536
0.788415
0.276588
0.128650
0.139818
0.129165
0.139788
0.128650
0.788324
0.209637
0.128599
0.139849
0.128616
0.788412
0.128629
0.139803
0.139815
0.128588
0.128651
0.788491
0.139887
0.788357
0.789112
0.788494
0.128644
0.128630
0.128630
0.139818
0.788431
0.276588
0.788446
0.128622
0.789112
0.139877
0.139812
0.128671
0.128629
0.129165
0.170684
0.128569
0.128613
0.788447
0.139877
0.787876
0.276588
0.139812
0.788489
0.128655
0.139795
0.788357
0.128613
0.788483
0.788553
0.209744
0.276624
0.788357
0.128629
0.128629
0.129165
0.139812
0.128588
0.809015
0.788489
0.209742
0.788398
0.139803
0.808442
0.128567
0.788478
0.788390
0.139815
0.135360
0.130173
0.207865
0.788489
0.128567
0.139793
0.788361
0.128629
0.139793
0.135955
0.128567
0.128644
0.139815
0.276671
0.128613
0.788464
0.788477
0.128563
0.276588
0.788390
0.788503
0.128589
0.128613
0.128622
0.788403
0.135955
0.139830
0.139769
0.139803
0.139803
0.139887
0.615375
0.129165
0.128567
0.139815
0.809039
0.209742
0.129371
0.276588
0.788493
0.128671
0.139815
0.788483
0.128672
0.129165
0.139830
0.139830
0.139815
0.139803
0.128672
0.788489
0.128588
0.139830
0.788390
0.135360
0.128629
0.128671
0.787908
0.128655
0.128622
0.788477
0.128655
0.139818
0.788381
0.788382
0.791007
0.128622
0.787943
0.789112
0.788432
0.128655
0.128655
0.128629
0.128567
0.808988
0.788477
0.128599
0.809037
0.794079
0.128622
0.128629
0.139830
0.788493
0.128588
0.788469
0.788462
0.139763
0.139830
0.139789
0.139852
0.139843
0.128671
0.139849
0.808484
0.139803
0.276695
0.128651
0.139815
0.788360
0.276588
0.788473
0.128589
0.139769
0.139843
0.139803
0.128630
0.139803
0.139843
0.276588
0.128671
0.129165
0.807576
0.128630
0.139795
0.788360
0.128655
0.139877
0.140046
0.788447
0.129224
0.788415
0.128629
0.128567
0.128616
0.139843
0.788479
0.788390
0.128700
0.128622
0.788398
0.128613
0.128589
0.788424
0.209742
0.788448
0.788697
0.139812
0.139887
0.129371
0.128651
0.139830
0.394737
0.128613
0.128655
0.128650
0.128644
0.128671
0.128629
0.128650
0.128613
0.139812
0.128629
0.139815
0.276588
0.788372
0.276643
0.128567
0.788469
0.139803
0.276656
0.139815
0.128613
0.788288
0.128644
0.128588
0.788011
0.788480
0.128622
0.276588
0.128650
0.139803
0.128655
0.128628
0.787823
0.128628
0.788424
0.139852
0.128629
0.209744
0.139830
0.276588
0.276588
0.128655
0.128616
0.788430
0.806257
0.128629
0.788368
0.129371
0.788442
0.788469
0.170684
0.128671
0.788357
0.139763
0.128655
0.128588
0.788494
0.139763
0.135360
0.809017
0.788463
0.789112
0.788357
0.128589
0.139815
0.808959
0.128655
0.788397
0.129165
0.128655
0.128671
0.788363
0.788375
0.128567
0.129165
0.129165
0.139861
0.807758
0.128613
0.139815
0.139815
0.788476
0.128655
0.788509
0.128622
0.139812
0.129165
0.809039
0.128616
0.788357
0.139812
0.788350
0.653230
0.209742
0.128644
0.788459
0.139852
0.128672
0.128599
0.787989
0.788357
0.128651
0.788390
0.139849
0.788697
0.139795
0.129224
0.782966
0.128655
0.789112
0.788472
0.128589
0.276588
0.139812
0.128622
0.792455
0.128655
0.276588
0.128589
0.128671
0.788603
0.128628
0.139815
0.788464
0.129165
0.128650
0.209628
0.139803
0.139812
0.789112
0.788431
0.130173
0.128628
0.276651
0.789112
0.128630
0.128616
0.139852
0.139812
0.128588
0.128616
0.128629
0.139909
0.128613
0.128700
0.128563
0.128629
0.128650
0.135360
0.128616
0.135360
0.788399
0.788506
0.139830
0.135360
0.788468
0.139861
0.128599
0.788361
0.128613
0.128671
0.788357
0.760355
0.788357
0.128672
0.788478
0.139795
0.128655
0.129165
0.788361
0.139830
0.788324
0.209637
0.807497
0.128651
0.789112
0.760698
0.170684
0.788457
0.129165
0.129165
0.139803
0.139830
0.139769
0.139803
0.128589
0.128655
0.139877
0.128567
0.276588
0.788390
0.128655
0.276588
0.788462
0.139763
0.129165
0.140046
0.129165
0.276588
0.128651
0.139830
0.789112
0.128672
0.129165
0.276588
0.276588
0.788467
0.135060
0.128655
0.788288
0.788468
0.788350
0.128655
0.128628
0.128672
0.788381
0.128655
0.128588
0.788464
0.139849
0.788400
0.128589
0.139803
0.139861
0.129165
0.139815
0.139803
0.128700
0.128589
0.788477
0.788357
0.788394
0.788395
0.763511
0.128563
0.128589
0.139788
0.135955
0.139795
0.139815
0.128563
0.128655
0.139815
0.128671
0.128629
0.128630
0.209716
0.139909
0.209759
0.139815
0.128655
0.276588
0.209744
0.788457
0.139852
0.139803
0.129224
0.129165
0.276588
0.139830
0.128567
0.128599
0.788480
0.128671
0.128651
0.128599
0.209759
0.128622
0.181795
0.139815
0.128567
0.139812
0.139812
0.128700
0.139830
0.209637
0.139812
0.139852
0.139812
0.139815
0.139803
0.128628
0.139887
0.139815
0.128630
0.209716
0.808959
0.139803
0.139852
0.128616
0.788510
0.128616
0.788489
0.135360
0.129165
0.139815
0.128589
0.128622
0.128671
0.128655
0.128655
0.788354
0.788477
0.135060
0.139812
0.139849
0.276588
0.128655
0.128651
0.139830
0.128651
0.788398
0.139769
0.788408
0.128684
0.128629
0.128671
0.129224
0.128655
0.139803
0.798221
0.794079
0.139815
0.788429
0.139815
0.128616
0.139812
0.788458
0.128629
0.139815
0.128567
0.128655
0.139815
0.128655
0.128650
0.139803
0.128700
0.129165
0.128655
0.139830
0.791007
0.207865
0.128567
0.139830
0.135360
0.139909
0.788477
0.276588
0.128672
0.139815
0.130173
0.139795
0.788480
0.128655
0.128629
0.139830
0.128599
0.139789
0.139843
0.128655
0.128671
0.788324
0.129224
0.128651
0.788401
0.139803
0.128628
0.788360
0.128567
0.788398
0.139843
0.128630
0.788324
0.128655
0.135060
0.788463
0.139815
0.788326
0.139861
0.139803
0.276588
0.788431
0.135360
0.128599
0.139812
0.788357
0.139852
0.129224
0.276588
0.128589
0.788381
0.788424
0.129371
0.139887
0.128684
0.128630
0.788477
0.788463
0.209742
0.790951
0.139795
0.788464
0.128644
0.129165
0.276515
0.139843
0.139803
0.139830
0.128622
0.787876
0.139812
0.128563
0.789112
0.209716
0.128629
0.788390
0.129165
0.128622
0.276588
0.170684
0.139909
0.139803
0.128599
0.788553
0.128671
0.276588
0.139815
0.139795
0.615375
0.128650
0.128622
0.181795
0.128655
0.276546
0.276662
0.788464
0.771953
0.804239
0.276588
0.139789
0.788377
0.139815
0.789112
0.128569
0.128567
0.788415
0.129165
0.788427
0.139815
0.139769
0.282439
0.181795
0.798221
0.788465
0.788480
0.139763
0.207865
0.788357
0.128672
0.128650
0.135360
0.788423
0.794079
0.276588
0.128655
0.139803
0.788357
0.128700
0.128700
0.139812
0.139812
0.139803
0.788433
0.128622
0.139830
0.139812
0.128622
0.139815
0.139887
0.788399
0.139812
0.209744
0.128630
0.128622
0.135360
0.128629
0.128588
0.789112
0.128599
0.788318
0.128684
0.139830
0.128567
0.128588
0.128589
0.788372
0.788357
0.128622
0.209628
0.788390
0.128684
0.788357
0.798221
0.276588
0.788408
0.128629
0.128629
0.139803
0.128684
0.128655
0.128588
0.788464
0.788431
0.788506
0.139818
0.128622
0.209637
0.135060
0.139887
0.128613
0.128655
0.128655
0.788172
0.804239
0.788350
0.139830
0.128655
0.128629
0.139849
0.788482
0.128655
0.788482
0.773090
0.276588
0.128650
0.129165
0.128613
0.809035
0.209744
0.129165
0.128622
0.139815
0.139788
0.139815
0.128599
0.788357
0.139812
0.139795
0.128589
0.139909
0.128672
0.128644
0.788361
0.788258
0.128655
0.129165
0.128655
0.788390
0.139815
0.789263
0.128589
0.139877
0.128628
0.139803
0.788373
0.128630
0.207865
0.128651
0.139793
0.139793
0.128629
0.128599
0.788247
0.128671
0.128671
0.139803
0.139803
0.129165
0.139795
0.788431
0.129371
0.139818
0.139830
0.128700
0.128630
0.788408
0.128567
0.128567
0.128589
0.139818
0.128689
0.788467
0.128655
0.139795
0.788359
0.139803
0.809039
0.128613
0.139909
0.788390
0.788414
0.128629
0.788553
0.139815
0.128622
0.128613
0.276518
0.128588
0.139803
0.128589
0.128563
0.140046
0.788397
0.276598
0.128616
0.128650
0.788342
0.139793
0.788400
0.170684
0.139803
0.139818
0.788357
0.276653
0.788390
0.128629
0.139830
0.788357
0.139815
0.793902
0.788372
0.788394
0.139812
0.128567
0.788357
0.135955
0.135955
0.139793
0.139769
0.128630
0.128651
0.139815
0.789112
0.128630
0.277641
0.789112
0.128613
0.128629
0.788357
0.789112
0.788390
0.788357
0.789112
0.128613
0.128672
0.788357
0.789112
0.129224
0.788431
0.276588
0.276507
0.209742
0.128599
0.788330
0.128630
0.128629
0.128622
0.128651
0.788390
0.794079
0.128700
0.788489
0.788457
0.788429
0.139763
0.135360
0.209628
0.128671
0.139812
0.809115
0.139852
0.788390
0.128655
0.139830
0.139815
0.128629
0.788425
0.209744
0.139803
0.128567
0.788448
0.788467
0.128655
0.170684
0.129165
0.128671
0.128616
0.788357
0.128599
0.128622
0.788333
0.128650
0.128588
0.128689
0.139763
0.276651
0.139830
0.808959
0.788462
0.788469
0.129165
0.788464
0.788398
0.276572
0.788430
0.139812
0.276593
0.788473
0.128569
0.128588
0.789112
0.788477
0.207865
0.128567
0.128655
0.771953
0.128671
0.276588
0.128671
0.788374
0.139843
0.788439
0.128579
0.135955
0.139818
0.139843
0.788424
0.788423
0.788400
0.139815
0.128567
0.788361
0.139812
0.276588
0.129371
0.128567
0.788447
0.788603
0.139815
0.139795
0.276588
0.788394
0.793047
0.139803
0.128672
0.128629
0.128567
0.788429
0.788138
0.788423
0.128613
0.808971
0.128630
0.128616
0.809035
0.207865
0.128599
0.760355
0.128622
0.128599
0.788394
0.788491
0.789112
0.806257
0.788357
0.128588
0.789112
0.128622
0.788357
0.789112
0.128616
0.128672
0.129165
0.788483
0.128616
0.128629
0.788430
0.139830
0.128567
0.139815
0.788399
0.276700
0.139788
0.139815
0.276588
0.128630
0.788462
0.129165
0.788468
0.128567
0.788453
0.653230
0.788489
0.128563
0.793902
0.128613
0.128689
0.139887
0.788357
0.129224
0.128616
0.128622
0.798903
0.128616
0.170684
0.170684
0.139830
0.128616
0.139849
0.276588
0.140046
0.128672
0.140046
0.139830
0.139803
0.128616
0.128671
0.804239
0.276588
0.139763
0.139843
0.170684
0.209637
0.788135
0.128630
0.787989
0.139793
0.788357
0.135955
0.276588
0.139861
0.128672
0.128588
0.139763
0.139887
0.789112
0.128613
0.128622
0.139812
0.139812
0.788476
0.789112
0.128629
0.403655
0.788506
0.788418
0.788458
0.139815
0.724777
0.135360
0.139812
0.128671
0.128622
0.788459
0.139830
0.128671
0.789112
0.139830
0.139849
0.128655
0.130173
0.209628
0.209759
0.135060
0.128630
0.788412
0.128655
0.139812
0.128629
0.129165
0.792455
0.788367
0.788361
0.128655
0.129371
0.139803
0.788433
0.139815
0.129165
0.788429
0.170684
0.788458
0.139830
0.809053
0.209742
0.135955
0.139909
0.129165
0.128650
0.129165
0.128589
0.403655
0.788494
0.788363
0.128672
0.128655
0.128616
0.129165
0.128671
0.139909
0.139788
0.128630
0.788390
0.128671
0.139803
0.128655
0.139830
0.139830
0.129224
0.788390
0.788462
0.139877
0.128567
0.128622
0.139861
0.139812
0.139815
0.139818
0.139909
0.128644
0.135360
0.181795
0.128567
0.139830
0.789112
0.139803
0.795875
0.128629
0.789112
0.788357
0.128672
0.139795
0.139830
0.128671
0.788477
0.276591
0.209716
0.128613
0.788459
0.280045
0.129165
0.789112
0.128589
0.181795
0.128672
0.128628
0.788458
0.788430
0.128629
0.129371
0.128613
0.128599
0.788429
0.788418
0.788462
0.128650
0.135060
0.804239
0.139852
0.788464
0.788431
0.788434
0.789112
0.139815
0.128616
0.139812
0.139812
0.128613
0.788448
0.615375
0.282439
0.207865
0.788399
0.139818
0.128622
0.139843
0.353171
0.128588
0.128672
0.128613
0.128599
0.788489
0.788493
0.276588
0.139815
0.788417
0.788304
0.139795
0.128616
0.128672
0.128628
0.789112
0.129165
0.139830
0.128616
0.139830
0.139815
0.128622
0.128616
0.139843
0.128567
0.788455
0.788367
0.794232
0.128655
0.788357
0.789263
0.128650
0.128589
0.139789
0.789112
0.128628
0.139830
0.135360
0.128599
0.139830
0.788425
0.139812
0.788466
0.209744
0.788372
0.139877
0.128630
0.207865
0.788357
0.128629
0.793902
0.129165
0.788394
0.209637
0.139803
0.139861
0.788359
0.139861
0.809003
0.139830
0.788468
0.128689
0.446497
0.139789
0.788553
0.128628
0.788381
0.128599
0.804239
0.139830
0.128671
0.276588
0.128689
0.135060
0.139815
0.788402
0.789112
0.128672
0.140046
0.128567
0.128613
0.128630
0.139812
0.128567
0.788357
0.129371
0.276683
0.806257
0.128650
0.140046
0.128567
0.139830
0.128589
0.139830
0.788357
0.788228
0.788367
0.139815
0.787955
0.129165
0.139815
0.139795
0.139830
0.128613
0.181795
0.788390
0.788444
0.129371
0.139812
0.128563
0.139803
0.209744
0.139861
0.139795
0.139812
0.128628
0.788393
0.128567
0.128616
0.139788
0.128563
0.276588
0.139830
0.788391
0.789112
0.788429
0.128655
0.128655
0.788458
0.128589
0.128616
0.788429
0.788603
0.788466
0.139815
0.139812
0.130173
0.128622
0.788438
0.789112
0.128655
0.139803
0.803603
0.788476
0.128622
0.128672
0.788430
0.128655
0.128651
0.128569
0.789112
0.788469
0.139830
0.788579
0.139830
0.128629
0.788117
0.128672
0.129371
0.128563
0.139849
0.129165
0.128629
0.139763
0.787771
0.139815
0.788390
0.788504
0.788491
0.128616
0.139812
0.209716
0.139812
0.139815
0.209628
0.139795
0.129165
0.128671
0.139812
0.788390
0.139830
0.128567
0.135360
0.128630
0.139830
0.135360
0.128672
0.128655
0.788371
0.129371
0.139849
0.128613
0.788474
0.128616
0.129371
0.128700
0.788477
0.788493
0.139763
0.789492
0.788255
0.128622
0.139815
0.128644
0.645302
0.760355
0.793047
0.135060
0.276588
0.788424
0.139812
0.809017
0.139763
0.789112
0.788373
0.139830
0.128672
0.793902
0.128563
0.139815
0.128588
0.128616
0.788381
0.139877
0.128629
0.128672
0.653230
0.209628
0.787772
0.806257
0.789112
0.128689
0.788387
0.788390
0.128672
0.276591
0.128599
0.782966
0.139815
0.128655
0.139803
0.139861
0.128588
0.788249
0.787772
0.128672
0.788430
0.128672
0.139852
0.139815
0.788439
0.139803
0.139830
0.128599
0.788382
0.128613
0.788275
0.788429
0.129224
0.139763
0.615375
0.128629
0.788357
0.128655
0.139763
0.809039
0.128655
0.128622
0.788417
0.788330
0.139815
0.788465
0.139803
0.788390
0.276588
0.128599
0.128672
0.276588
0.135360
0.128672
0.788399
0.276588
0.788390
0.809015
0.209742
0.788530
0.170684
0.276588
0.139830
0.128613
0.139909
0.128599
0.139815
0.788375
0.128700
0.789492
0.788504
0.128700
0.788491
0.139849
0.129165
0.209628
0.128672
0.139830
0.139803
0.139812
0.806817
0.128599
0.209742
0.139861
0.128589
0.128589
0.797609
0.788445
0.128616
0.139852
0.139818
0.128616
0.139830
0.128655
0.129165
0.128672
0.787781
0.128629
0.128629
0.139763
0.128622
0.128630
0.139763
0.128628
0.128672
0.788466
0.128613
0.139803
0.128563
0.276588
0.276600
0.139877
0.128629
0.128599
0.128629
0.139852
0.128589
0.140046
0.788408
0.139812
0.788357
0.250103
0.788468
0.128629
0.170684
0.128655
0.788357
0.446497
0.209716
0.139815
0.788377
0.788357
0.128622
0.788335
0.139852
0.135360
0.809035
0.276598
0.139849
0.788360
0.128689
0.128622
0.139830
0.788430
0.788480
0.788372
0.128655
0.788394
0.139803
0.209637
0.181795
0.128672
0.129371
0.788390
0.128567
0.788480
0.760355
0.809044
0.139789
0.139861
0.128563
0.788357
0.128567
0.128689
0.277641
0.128629
0.128616
0.128579
0.788400
0.128655
0.139815
0.128622
0.128655
0.793902
0.139830
0.128588
0.139795
0.788210
0.139789
0.788464
0.788492
0.135955
0.128622
0.129165
0.139849
0.276572
0.788429
0.139815
0.128655
0.139803
0.139815
0.139803
0.139812
0.139909
0.787805
0.788483
0.139830
0.128672
0.128622
0.128599
0.128672
0.128628
0.128588
0.139861
0.809115
0.276588
0.128613
0.139812
0.128588
0.788361
0.788403
0.139812
0.809037
0.128563
0.139909
0.788398
0.207865
0.128567
0.789263
0.129165
0.139789
0.128629
0.615375
0.276588
0.788439
0.139830
0.788697
0.139830
0.615375
0.804239
0.135360
0.207865
0.128622
0.788373
0.788390
0.788357
0.788368
0.129165
0.128700
0.128630
0.128684
0.128629
0.789112
0.787828
0.128622
0.793902
0.128655
0.276588
0.139830
0.130173
0.788458
0.128630
0.128622
0.128613
0.128613
0.788326
0.139803
0.782966
0.276588
0.128613
0.128599
0.139887
0.276588
0.139803
0.139815
0.170684
0.129165
0.788530
0.128563
0.128622
0.788398
0.128672
0.788415
0.788387
0.128567
0.128628
0.139830
0.788464
0.788375
0.788399
0.209742
0.788504
0.128655
0.139815
0.128672
0.135955
0.128630
0.128567
0.788431
0.788480
0.788357
0.129165
0.788447
0.139803
0.788467
0.128629
0.788431
0.209759
0.128563
0.139877
0.128651
0.128629
0.139815
0.276635
0.139803
0.788182
0.128567
0.128644
0.139788
0.128630
0.128671
0.276588
0.129165
0.128567
0.128588
0.788430
0.170684
0.139852
0.140046
0.128622
0.788467
0.128567
0.128700
0.128622
0.139909
0.129165
0.209716
0.139830
0.128567
0.788493
0.788454
0.128644
0.788392
0.276588
0.128650
0.139849
0.139789
0.789112
0.128655
0.139803
0.128672
0.139803
0.788430
0.129165
0.139803
0.788387
0.807576
0.276588
0.128655
0.128567
0.276635
0.139830
0.128588
0.139812
0.128644
0.791108
0.388504
0.789112
0.128671
0.128672
0.788490
0.128589
0.128622
0.276588
0.788501
0.139830
0.788294
0.139815
0.139763
0.788350
0.128629
0.139852
0.128622
0.139861
0.128655
0.276588
0.128651
0.788361
0.128622
0.793902
0.209759
0.139793
0.128650
0.128655
0.139788
0.128655
0.128629
0.128622
0.128629
0.128613
0.809060
0.788463
0.128599
0.209744
0.128567
0.139849
0.139803
0.139815
0.276593
0.129371
0.128622
0.128672
0.789112
0.809017
0.128651
0.139763
0.128616
0.128684
0.128650
0.128567
0.809052
0.128616
0.788476
0.128589
0.128588
0.788189
0.128599
0.795875
0.139812
0.128651
0.128650
0.128629
0.128616
0.276588
0.788479
0.782966
0.789112
0.128655
0.128629
0.139830
0.794079
0.135955
0.139830
0.139793
0.128616
0.788482
0.788470
0.128613
0.277641
0.789112
0.276588
0.128671
0.139812
0.789112
0.788408
0.788357
0.139830
0.128672
0.129165
0.788377
0.809115
0.139877
0.128622
0.139818
0.788432
0.209637
0.276588
0.128622
0.788180
0.128589
0.139815
0.788493
0.129165
0.788457
0.128630
0.128651
0.139812
0.128622
0.135360
0.788390
0.787895
0.789112
0.789112
0.128599
0.139815
0.792455
0.139830
0.139909
0.276588
0.139830
0.128672
0.128650
0.788464
0.128616
0.808484
0.788357
0.788464
0.276588
0.129371
0.276588
0.128622
0.788371
0.209628
0.128567
0.128672
0.128613
0.128671
0.276588
0.139815
0.798221
0.129165
0.129371
0.139812
0.788375
0.128616
0.353171
0.139803
0.276588
0.788433
0.789112
0.128599
0.788423
0.788467
0.130173
0.788357
0.128628
0.788398
0.788326
0.128689
0.128622
0.446497
0.139795
0.128671
0.763511
0.139815
0.128644
0.128629
0.128613
0.139803
0.809008
0.139815
0.128567
0.128616
0.788464
0.788412
0.139763
0.788448
0.128655
0.128629
0.615375
0.128567
0.788477
0.788491
0.139843
0.128630
0.787844
0.789112
0.139843
0.809046
0.139830
0.139763
0.788226
0.128650
0.128700
0.128616
0.129165
0.807758
0.139812
0.139830
0.128613
0.128655
0.128630
0.789112
0.128655
0.139815
0.128622
0.790951
0.139812
0.139815
0.128671
0.128655
0.129165
0.276588
0.797609
0.128629
0.128589
0.788288
0.788430
0.139861
0.788333
0.793902
0.788381
0.139812
0.128629
0.128671
0.788430
0.135360
0.139769
0.788390
0.276588
0.139830
0.788429
0.139812
0.788417
0.139815
0.788404
0.128700
0.128599
0.788491
0.789112
0.128629
0.128628
0.128644
0.128655
0.209716
0.788477
0.139815
0.788509
0.139789
0.139830
0.139877
0.139849
0.128684
0.135360
0.788489
0.788415
0.788375
0.128599
0.128672
0.788377
0.139830
0.128588
0.139830
0.128567
0.129224
0.276600
0.128567
0.788448
0.788463
0.139849
0.128672
0.128588
0.128613
0.128629
0.139812
0.128630
0.788357
0.128622
0.808970
0.139830
0.128655
0.806817
0.139788
0.139795
0.139843
0.129224
0.139849
0.181795
0.128622
0.128613
0.139803
0.446497
0.128567
0.809115
0.139861
0.135360
0.128655
0.128579
0.795119
0.788373
0.209759
0.139830
0.788390
0.139818
0.139861
0.139769
0.209759
0.128628
0.128655
0.139812
0.128567
0.789112
0.789112
0.128567
0.789112
0.788476
0.276515
0.788390
0.181795
0.128622
0.139818
0.128655
0.788394
0.128650
0.139830
0.128629
0.128655
0.128616
0.128628
0.128567
0.788333
0.139763
0.128599
0.128672
0.788400
0.135360
0.128588
0.128628
0.139830
0.788424
0.139803
0.128672
0.139887
0.128629
0.139843
0.276588
0.128629
0.128700
0.787895
0.128567
0.788493
0.788390
0.139909
0.139789
0.139812
0.788390
0.128622
0.788414
0.128628
0.128616
0.808652
0.507724
0.788458
0.807497
0.139818
0.128616
0.139849
0.128579
0.128700
0.276567
0.276588
0.128655
0.128672
0.788394
0.276588
0.788419
0.139830
0.128622
0.139830
0.788357
0.788464
0.128655
0.128567
0.788430
0.139830
0.128613
0.128655
0.128599
0.209637
0.139815
0.276588
0.276588
0.788528
0.209742
0.128589
0.128628
0.139815
0.128655
0.139803
0.128563
0.128588
0.808977
0.139815
0.128588
0.128567
0.276684
0.128622
0.788431
0.139803
0.139812
0.139830
0.139812
0.128589
0.128650
0.128622
0.129371
0.793902
0.128628
0.139793
0.128655
0.128629
0.170684
0.139812
0.139861
0.139887
0.128599
0.788476
0.139803
0.250103
0.128622
0.788462
0.128700
0.788424
0.139815
0.139861
0.139795
0.128628
0.788462
0.139815
0.128622
0.128569
0.808442
0.788357
0.128644
0.140046
0.139815
0.798221
0.128613
0.788438
0.140046
0.789112
0.788399
0.139803
0.128589
0.128567
0.128700
0.788449
0.128672
0.788465
0.128671
0.139909
0.789112
0.128613
0.135955
0.128599
0.139818
0.276671
0.139830
0.128628
0.788332
0.139815
0.209716
0.788427
0.128644
0.128588
0.128672
0.788431
0.135360
0.276588
0.128630
0.788399
0.128613
0.139830
0.276588
0.789263
0.128569
0.128651
0.128630
0.128700
0.139803
0.128589
0.129165
0.128616
0.128588
0.128613
0.276619
0.788357
0.128588
0.128563
0.788447
0.139830
0.128672
0.139795
0.128599
0.128599
0.789263
0.129371
0.129165
0.139803
0.788446
0.788398
0.788447
0.139769
0.788357
0.788354
0.788471
0.128671
0.128599
0.788390
0.789112
0.128630
0.276695
0.128622
0.794079
0.128613
0.128650
0.788247
0.139795
0.788390
0.128650
0.128589
0.128588
0.139830
0.276588
0.128650
0.139843
0.788369
0.788375
0.128672
0.788697
0.788464
0.139793
0.129165
0.276588
0.129165
0.139849
0.139830
0.139830
0.128589
0.139815
0.128655
0.209716
0.128628
0.788449
0.135360
0.788417
0.139815
0.788398
0.788399
0.139812
0.128622
0.129371
0.139815
0.789112
0.139815
0.139815
0.128689
0.128651
0.789263
0.128599
0.128644
0.128616
0.788466
0.129371
0.209742
0.128671
0.128629
0.128613
0.139830
0.788330
0.209742
0.128569
0.128655
0.788357
0.788459
0.789492
0.139815
0.130173
0.788271
0.788361
0.139769
0.128651
0.139830
0.209628
0.139815
0.128684
0.788180
0.128622
0.129371
0.139795
0.129371
0.128622
0.139789
0.129371
0.128567
0.789112
0.128616
0.139887
0.792455
0.788399
0.128644
0.788404
0.128567
0.788326
0.139830
0.788390
0.128629
0.135360
0.128588
0.128651
0.139887
0.128655
0.139818
0.129165
0.128700
0.139887
0.130173
0.276684
0.788463
0.788387
0.128567
0.788495
0.139861
0.135955
0.788449
0.139812
0.139909
0.209744
0.276624
0.209628
0.128563
0.128569
0.128616
0.139812
0.128622
0.139795
0.140046
0.789112
0.129224
0.139815
0.788490
0.128672
0.128629
0.128672
0.128629
0.128569
0.128616
0.139812
0.128644
0.135955
0.129165
0.128569
0.788357
0.135060
0.788350
0.139877
0.128629
0.135060
0.139815
0.788390
0.788493
0.788463
0.128629
0.128588
0.788471
0.128567
0.128629
0.140046
0.809060
0.139815
0.128655
0.789112
0.788448
0.276588
0.128613
0.760355
0.788432
0.128672
0.128655
0.788400
0.128616
0.128655
0.789263
0.128622
0.128629
0.209637
0.128671
0.128599
0.276588
0.139795
0.128616
0.128655
0.128589
0.209742
0.128629
0.209744
0.139803
0.128599
0.788390
0.788360
0.276624
0.128655
0.788398
0.788318
0.128672
0.128628
0.788504
0.128650
0.276588
0.787834
0.788464
0.139849
0.788357
0.128655
0.135060
0.809008
0.788405
0.128655
0.128628
0.276588
0.128599
0.276588
0.128655
0.128655
0.128689
0.128599
0.788459
0.128616
0.789112
0.139812
0.128672
0.276619
0.128628
0.128629
0.128671
0.789112
0.788324
0.276683
0.788477
0.139812
0.788182
0.129224
0.789112
0.789112
0.129371
0.139812
0.139815
0.139815
0.128629
0.808977
0.808970
0.128630
0.788350
0.139793
0.128655
0.276511
0.128700
0.139815
0.128579
0.128616
0.788451
0.788375
0.135360
0.128651
0.139861
0.128616
0.128616
0.788439
0.276588
0.139830
0.788467
0.139852
0.789112
0.139812
0.788377
0.128628
0.128569
0.135955
0.129371
0.128671
0.276588
0.788372
0.128567
0.209744
0.128655
0.139812
0.128622
0.788489
0.129371
0.276548
0.128588
0.276698
0.209716
0.128628
0.209637
0.128650
0.276588
0.181795
0.760355
0.788432
0.787944
0.128567
0.140046
0.789112
0.128567
0.128672
0.128700
0.139830
0.139843
0.128655
0.128613
0.788491
0.788603
0.128672
0.788476
0.129165
0.788553
0.139830
0.139830
0.128629
0.128671
0.809046
0.809052
0.128567
0.135060
0.788415
0.130173
0.788357
0.789112
0.789112
0.788453
0.788424
0.139818
0.128589
0.788390
0.788463
0.135360
0.276588
0.139812
0.276572
0.139803
0.139830
0.276588
0.135060
0.129165
0.128613
0.788472
0.276700
0.276588
0.139793
0.128629
0.140046
0.788444
0.139815
0.139812
0.788482
0.139815
0.788357
0.789112
0.788473
0.128651
0.209759
0.139830
0.139815
0.209637
0.788463
0.788373
0.139909
0.788449
0.128655
0.128651
0.209742
0.128672
0.139812
0.209628
0.788447
0.129371
0.128655
0.139803
0.789112
0.139849
0.276588
0.129371
0.788375
0.128629
0.129371
0.207865
0.128622
0.277641
0.276588
0.139852
0.129165
0.129165
0.788357
0.128622
0.128569
0.129165
0.788451
0.128563
0.139830
0.128588
0.789112
0.128616
0.139803
0.128655
0.128622
0.792455
0.788429
0.788368
0.135060
0.128599
0.789112
0.139887
0.128655
0.128567
0.788471
0.128613
0.128622
0.139861
0.789112
0.128684
0.128616
0.128613
0.789112
0.139815
0.139830
0.139803
0.128672
0.139812
0.128655
0.139815
0.128628
0.276638
0.788369
0.128616
0.129165
0.139843
0.128613
0.139803
0.128672
0.139830
0.788447
0.130173
0.139830
0.128655
0.139803
0.128650
0.128651
0.403655
0.788431
0.128671
0.788480
0.788330
0.276518
0.789263
0.128622
0.139830
0.276588
0.139815
0.128655
0.788458
0.792455
0.788429
0.128599
0.276591
0.129165
0.128672
0.789112
0.128655
0.788425
0.139877
0.139812
0.139795
0.128684
0.129165
0.788357
0.788361
0.139812
0.128629
0.787844
0.446497
0.788465
0.139812
0.139803
0.139815
0.276566
0.788491
0.128671
0.276588
0.128672
0.128567
0.788438
0.788390
0.788258
0.788408
0.128599
0.139793
0.128650
0.788506
0.139818
0.128655
0.788357
0.139815
0.276588
0.250103
0.128671
0.139815
0.209742
0.128629
0.128672
0.139812
0.276588
0.787998
0.788357
0.128630
0.128628
0.139887
0.250103
0.788432
0.789112
0.645302
0.139812
0.209759
0.128579
0.135360
0.135060
0.788446
0.128613
0.788431
0.806817
0.128616
0.128700
0.128671
0.788425
0.139830
0.128563
0.135955
0.250103
0.788453
0.128628
0.128689
0.139861
0.789112
0.128613
0.139812
0.276572
0.139909
0.788431
0.139815
0.139803
0.139812
0.139812
0.128644
0.798221
0.139795
0.128622
0.792455
0.128629
0.280045
0.139803
0.139803
0.788477
0.788381
0.207865
0.788455
0.788453
0.139803
0.276588
0.128630
0.276588
0.129371
0.128588
0.788404
0.788474
0.128655
0.128567
0.128622
0.135360
0.139815
0.128655
0.128689
0.789263
0.788390
0.139815
0.788390
0.139803
0.789112
0.128613
0.128630
0.788477
0.128671
0.128671
0.128672
0.128650
0.128672
0.615375
0.139812
0.139795
0.788357
0.209637
0.128630
0.128588
0.788423
0.139812
0.128613
0.128655
0.788491
0.128622
0.135360
0.139815
0.128599
0.788448
0.128655
0.788493
0.139812
0.128599
0.139815
0.139793
0.139803
0.128567
0.788392
0.128613
0.139789
0.128672
0.128567
0.788382
0.139793
0.791108
0.139803
0.139793
0.788493
0.128567
0.135360
0.128567
0.788445
0.128628
0.793902
0.787844
0.788399
0.788477
0.128650
0.139861
0.139849
0.788449
0.128622
0.788477
0.135955
0.788477
0.129165
0.128569
0.129165
0.276588
0.788424
0.128567
0.128616
0.128567
0.128599
0.139830
0.139830
0.139789
0.128613
0.139812
0.788424
0.788480
0.128629
0.788374
0.276519
0.128671
0.139793
0.276588
0.128672
0.128644
0.787823
0.128629
0.788390
0.129165
0.140046
0.139830
0.139795
0.788431
0.128616
0.139803
0.139830
0.135360
0.128684
0.128599
0.128655
0.787955
0.809003
0.128622
0.771953
0.793902
0.276588
0.128616
0.788393
0.209637
0.128630
0.788510
0.139815
0.788463
0.128616
0.129165
0.139815
0.128567
0.128616
0.128644
0.128599
0.788010
0.788295
0.276593
0.209637
0.139815
0.788430
0.128672
0.128671
0.139815
0.128613
0.139852
0.128599
0.128629
0.170684
0.129165
0.788354
0.788489
0.807576
0.446497
0.139803
0.128672
0.209744
0.282439
0.788381
0.128655
0.139815
0.139812
0.139815
0.128629
0.128599
0.139803
0.181795
0.788357
0.128689
0.128655
0.139818
0.128622
0.128672
0.788468
0.789112
0.788092
0.128563
0.128622
0.788448
0.128599
0.139830
0.788463
0.139803
0.788363
0.139887
0.808959
0.803603
0.128700
0.128599
0.788459
0.128651
0.788451
0.788448
0.139803
0.129165
0.139763
0.276588
0.788401
0.139818
0.139877
0.788495
0.789112
0.139793
0.128700
0.277641
0.170684
0.789112
0.788491
0.135360
0.129165
0.787781
0.788357
0.128599
0.128563
0.139803
0.128672
0.788395
0.276588
0.302632
0.139849
0.788350
0.276588
0.139830
0.139830
0.181795
0.128588
0.788350
0.130173
0.787948
0.128650
0.139803
0.139877
0.128700
0.128629
0.139909
0.788361
0.128567
0.788424
0.128588
0.139830
0.790951
0.139830
0.139852
0.276588
0.128651
0.128651
0.128589
0.788390
0.209742
0.135955
0.128569
0.788363
0.129371
0.135060
0.788390
0.128672
0.128629
0.139815
0.129224
0.276588
0.788430
0.140046
0.128628
0.128622
0.139887
0.181795
0.128563
0.128613
0.139812
0.128567
0.128629
0.139812
0.446497
0.128613
0.788468
0.139830
0.139763
0.789112
0.128629
0.139852
0.139815
0.139815
0.809039
0.139852
0.139815
0.209628
0.806817
0.809046
0.788477
0.128628
0.128655
0.128599
0.207865
0.788415
0.128588
0.128599
0.793902
0.788369
0.128655
0.276588
0.788475
0.128644
0.139812
0.128689
0.446497
0.788451
0.128650
0.276588
0.128622
0.139830
0.787896
0.789112
0.128700
0.128622
0.128567
0.788357
0.788504
0.276588
0.139769
0.128567
0.129165
0.809035
0.128672
0.793047
0.128599
0.129371
0.128655
0.788459
0.790951
0.209637
0.139830
0.788398
0.139887
0.788373
0.788357
0.788390
0.128655
0.139803
0.139861
0.209759
0.139812
0.788493
0.129165
0.139795
0.128671
0.209637
0.128567
0.139849
0.276624
0.209744
0.128671
0.128599
0.788478
0.139887
0.128655
0.788390
0.276588
0.788477
0.793902
0.128629
0.139861
0.788419
0.788494
0.128630
0.139830
0.788390
0.140046
0.128672
0.788390
0.128655
0.139830
0.788416
0.128588
0.128588
0.209759
0.760355
0.139887
0.276588
0.128629
0.128588
0.128613
0.128672
0.130173
0.129165
0.788381
0.139803
0.128672
0.139830
0.139769
0.129371
0.207865
0.139812
0.788477
0.276588
0.135360
0.276588
0.128622
0.139788
0.139812
0.128700
0.139812
0.128671
0.139852
0.128629
0.128629
0.128613
0.139815
0.139877
0.128655
0.788494
0.135360
0.788464
0.139909
0.128655
0.128651
0.139803
0.129165
0.128672
0.128588
0.789112
0.139815
0.128599
0.128684
0.139812
0.788357
0.128651
0.209759
0.128567
0.139812
0.140046
0.788335
0.139803
0.128622
0.128655
0.129165
0.209637
0.787834
0.139803
0.788430
0.128613
0.128655
0.128613
0.128629
0.128588
0.276566
0.128655
0.128579
0.139877
0.788434
0.276671
0.128684
0.788431
0.809015
0.128655
0.139803
0.139830
0.139818
0.128567
0.128616
0.276656
0.128579
0.788431
0.782966
0.139795
0.128630
0.788466
0.788390
0.128622
0.760355
0.128672
0.128655
0.139803
0.276588
0.128589
0.788466
0.276684
0.788350
0.128630
0.139803
0.139803
0.788357
0.788372
0.128644
0.128672
0.789112
0.135360
0.135955
0.139812
0.128563
0.788357
0.139812
0.615375
0.128655
0.788393
0.128616
0.139909
0.128616
0.139818
0.250103
0.139795
0.128671
0.128616
0.129224
0.128671
0.793902
0.128630
0.139812
0.139815
0.139815
0.788360
0.139849
0.128651
0.788464
0.276588
0.139789
0.128629
0.788052
0.128629
0.139788
0.140046
0.139830
0.788238
0.128622
0.128671
0.809106
0.128655
0.207865
0.139830
0.128655
0.787985
0.128650
0.128567
0.788433
0.209742
0.128651
0.135060
0.788530
0.128567
0.128629
0.139909
0.615375
0.128616
0.128630
0.128650
0.209637
0.209742
0.795875
0.139877
0.128655
0.276588
0.139789
0.128588
0.139795
0.128567
0.128630
0.788357
0.128651
0.139830
0.128655
0.128700
0.139818
0.128599
0.128630
0.139803
0.760355
0.789112
0.788494
0.139852
0.276625
0.128672
0.135360
0.128622
0.788377
0.128684
0.139861
0.139849
0.129165
0.128672
0.139909
0.130173
0.276588
0.128655
0.128563
0.788373
0.128672
0.789112
0.789112
0.139815
0.139812
0.139763
0.139815
0.788445
0.130173
0.788357
0.128672
0.128655
0.128563
0.139818
0.128630
0.129165
0.139815
0.128567
0.788494
0.139887
0.128651
0.788448
0.129224
0.790951
0.276588
0.276588
0.788357
0.139830
0.276588
0.276588
0.789112
0.128589
0.128567
0.135360
0.276588
0.128622
0.139830
0.139815
0.139803
0.788467
0.139763
0.139830
0.128622
0.128616
0.128628
0.135360
0.139763
0.128672
0.209759
0.209637
0.139812
0.209742
0.276588
0.139861
0.808970
0.128655
0.128644
0.128630
0.128599
0.788390
0.788491
0.129224
0.139795
0.128599
0.128671
0.140046
0.788357
0.788405
0.135360
0.788475
0.788326
0.446497
0.139815
0.788477
0.128579
0.788390
0.139818
0.787419
0.139815
0.139909
0.788403
0.788464
0.788425
0.128613
0.276588
0.128655
0.128569
0.789112
0.129371
0.129165
0.129165
0.788477
0.788399
0.139795
0.128567
0.788381
0.128599
0.128613
0.128599
0.788446
0.139812
0.276548
0.802568
0.128629
0.128689
0.128613
0.139812
0.128655
0.139849
0.181795
0.788477
0.139830
0.788357
0.207865
0.788439
0.128622
0.135360
0.139812
0.139803
0.139909
0.128629
0.207865
0.139861
0.788381
0.788360
0.788357
0.128579
0.139793
0.792455
0.789112
0.787771
0.128613
0.788470
0.139812
0.763511
0.128622
0.139909
0.139815
0.128563
0.788372
0.139795
0.128579
0.139803
0.128650
0.788424
0.135955
0.139812
0.788464
0.276588
0.139812
0.139830
0.135360
0.788477
0.128616
0.788424
0.128671
0.139812
0.128629
0.139818
0.139815
0.128650
0.139818
0.353171
0.139789
0.788477
0.788454
0.139861
0.139818
0.276588
0.788357
0.128630
0.128589
0.128672
0.135360
0.209637
0.788357
0.276591
0.788493
0.128672
0.128700
0.128671
0.128599
0.139830
0.788417
0.788393
0.129165
0.139803
0.139843
0.788238
0.790951
0.788506
0.788404
0.139909
0.788445
0.128651
0.139812
0.788423
0.128599
0.129371
0.140046
0.788431
0.128569
0.128588
0.128629
0.128622
0.128616
0.128689
0.128644
0.787998
0.276588
0.135360
0.139815
0.128569
0.139815
0.128622
0.128630
0.788381
0.276515
0.788357
0.128567
0.128655
0.129165
0.788357
0.128588
0.788400
0.139877
0.791108
0.135360
0.128671
0.128599
0.788238
0.276588
0.139789
0.788182
0.128671
0.788357
0.788473
0.128567
0.139818
0.129165
0.787771
0.788324
0.139861
0.788203
0.809008
0.139815
0.128567
0.139849
0.139763
0.788465
0.139830
0.139803
0.128655
0.181795
0.788476
0.276588
0.788390
0.809052
0.139849
0.139830
0.128599
0.139815
0.128651
0.788477
0.788288
0.139815
0.788464
0.135360
0.276588
0.128671
0.788493
0.128672
0.128630
0.128588
0.139812
0.139887
0.806257
0.139803
0.276588
0.128588
0.788381
0.276588
0.129165
0.139815
0.139803
0.139812
0.789112
0.788357
0.788357
0.128629
0.139818
0.139818
0.794079
0.139812
0.128613
0.139815
0.128655
0.788361
0.139861
0.128569
0.128563
0.129371
0.128689
0.128630
0.128622
0.788465
0.139849
0.128655
0.128567
0.129165
0.128629
0.788464
0.128629
0.128650
0.128655
0.788425
0.128655
0.789112
0.128616
0.788489
0.128671
0.128630
0.139815
0.128616
0.789112
0.135060
0.128622
0.128599
0.128563
0.139803
0.792455
0.788477
0.209759
0.808506
0.787908
0.139793
0.128650
0.139812
0.139818
0.128613
0.128567
0.788483
0.128567
0.139843
0.139815
0.209744
0.139815
0.139852
0.139795
0.788553
0.788294
0.128622
0.788300
0.276588
0.139763
0.139815
0.139803
0.139815
0.128629
0.788404
0.139830
0.128616
0.788470
0.807758
0.128655
0.788418
0.276588
0.139812
0.128629
0.804239
0.788393
0.128650
0.771953
0.130173
0.788394
0.128671
0.139795
0.790951
0.788357
0.788010
0.788324
0.128655
0.207865
0.788367
0.139803
0.129165
0.128651
0.128616
0.128589
0.128629
0.128629
0.128651
0.139812
0.139812
0.128563
0.128622
0.140046
0.139803
0.139803
0.207865
0.139803
0.128613
0.788390
0.181795
0.209759
0.788390
0.276588
0.788429
0.128599
0.128650
0.788464
0.128655
0.128629
0.139815
0.128589
0.139852
0.789263
0.129165
0.128599
0.788432
0.129165
0.128567
0.788446
0.128630
0.128563
0.128650
0.128630
0.139830
0.276588
0.771953
0.128651
0.788464
0.788398
0.139909
0.788390
0.128567
0.250103
0.788469
0.128622
0.128588
0.128655
0.128599
0.139763
0.128589
0.353171
0.128588
0.128672
0.760355
0.139849
0.139803
0.139803
0.788357
0.209628
0.128630
0.128651
0.139815
0.792455
0.135060
0.128630
0.139812
0.128588
0.139763
0.129371
0.128651
0.788438
0.139861
0.788390
0.128651
0.135060
0.276588
0.128655
0.128689
0.788510
0.803603
0.128655
0.129165
0.128650
0.135060
0.128589
0.276588
0.128630
0.181795
0.128616
0.788357
0.128567
0.276588
0.809037
0.788357
0.788477
0.128567
0.788434
0.139769
0.788477
0.809035
0.788464
0.128589
0.128589
0.139830
0.128567
0.128700
0.139763
0.209742
0.209716
0.788463
0.760355
0.139852
0.139812
0.139830
0.788180
0.139830
0.139830
0.128622
0.788453
0.139843
0.788475
0.788357
0.276588
0.139861
0.788480
0.789112
0.139763
0.139815
0.139830
0.276588
0.788530
0.139861
0.128563
0.139795
0.788480
0.128650
0.139803
0.128689
0.788493
0.128589
0.788425
0.788372
0.130173
0.139815
0.139795
0.170684
0.788477
0.129224
0.128616
0.128628
0.128616
0.788402
0.128622
0.128567
0.135060
0.250103
0.788390
0.128672
0.128684
0.788402
0.788491
0.128622
0.128599
0.139830
0.207865
0.128588
0.788350
0.446497
0.128651
0.788459
0.788390
0.139815
0.128622
0.139830
0.807497
0.788390
0.128588
0.788477
0.788400
0.139812
0.128630
0.128672
0.139763
0.128629
0.139795
0.128622
0.139830
0.128588
0.788477
0.788477
0.130173
0.798221
0.788390
0.788387
0.128567
0.128630
0.139812
0.139803
0.139812
0.128563
0.804239
0.139769
0.128616
0.128655
0.128567
0.128655
0.129165
0.788553
0.128599
0.808484
0.788381
0.140046
0.128650
0.788361
0.788393
0.788489
0.139815
0.276588
0.809060
0.788424
0.788463
0.128567
0.788431
0.135360
0.130173
0.788427
0.128622
0.128629
0.789112
0.645302
0.128655
0.130173
0.128630
0.139793
0.788469
0.788369
0.128616
0.788491
0.139789
0.276588
0.128684
0.128655
0.139887
0.128622
0.276588
0.788480
0.139815
0.788390
0.139815
0.276588
0.135060
0.808988
0.128613
0.128630
0.139815
0.128671
0.128655
0.135360
0.129224
0.181795
0.788357
0.788464
0.788462
0.139769
0.128655
0.139852
0.128563
0.128613
0.139815
0.139849
0.789112
0.139830
0.788424
0.128622
0.809052
0.788391
0.788357
0.139843
0.129371
0.128655
0.139795
0.788399
0.787781
0.139795
0.788295
0.128569
0.128622
0.139812
0.788579
0.128629
0.788449
0.788446
0.128599
0.276588
0.788431
0.128629
0.788435
0.139852
0.788419
0.128655
0.128644
0.139789
0.139830
0.128689
0.809008
0.788491
0.788424
0.139830
0.139812
0.788415
0.181795
0.809003
0.128616
0.139861
0.788448
0.788464
0.139830
0.128589
0.128567
0.139830
0.128589
0.446497
0.128622
0.128651
0.250103
0.787998
0.808484
0.139812
0.139887
0.788459
0.276588
0.788357
0.128655
0.139877
0.128684
0.128588
0.129165
0.139849
0.135060
0.128579
0.276588
0.788357
0.139830
0.128616
0.135360
0.128672
0.789112
0.276588
0.128567
0.139788
0.403655
0.788417
0.128622
0.129165
0.276588
0.181795
0.129165
0.129165
0.788431
0.139812
0.128655
0.139812
0.139830
0.128629
0.128613
0.128651
0.128613
0.128569
0.789112
0.788477
0.788467
0.129165
0.139830
0.139909
0.789112
0.128672
0.788357
0.276588
0.276588
0.789112
0.139815
0.139763
0.139818
0.788483
0.128655
0.128613
0.139812
0.130173
0.139803
0.139815
0.788318
0.789112
0.788430
0.789112
0.129165
0.788483
0.808652
0.353171
0.128700
0.788430
0.139849
0.139812
0.791007
0.788395
0.128671
0.128567
0.128629
0.128567
0.788326
0.788428
0.788477
0.788357
0.128650
0.276588
0.128655
0.276588
0.128689
0.788357
0.128629
0.788449
0.793902
0.139909
0.788357
0.139815
0.128655
0.139861
0.128650
0.139815
0.276588
0.139830
0.140046
0.139815
0.170684
0.128629
0.128689
0.788375
0.139803
0.788326
0.128672
0.788431
0.128622
0.139812
0.128622
0.128622
0.209742
0.807758
0.139769
0.789492
0.788417
0.128672
0.276519
0.788398
0.787985
0.128655
0.129165
0.128563
0.782966
0.139795
0.135360
0.170684
0.139849
0.128655
0.128671
0.788494
0.446497
0.788326
0.128569
0.129371
0.129165
0.788360
0.615375
0.787829
0.139830
0.128599
0.128613
0.128599
0.139852
0.788393
0.129371
0.128655
0.128616
0.789112
0.139849
0.276588
0.788357
0.128563
0.128599
0.788398
0.139815
0.129371
0.276588
0.139815
0.788387
0.788439
0.139803
0.139830
0.128622
0.128563
0.139830
0.181795
0.139815
0.128651
0.129165
0.128650
0.128700
0.788425
0.788373
0.788373
0.788357
0.139830
0.139815
0.788430
0.128567
0.209759
0.128655
0.139793
0.788434
0.129165
0.139830
0.788357
0.139830
0.795875
0.128655
0.788357
0.128613
0.788408
0.139852
0.209759
0.128563
0.139789
0.139812
0.128622
0.788467
0.788476
0.128629
0.128651
0.139793
0.128684
0.276588
0.128569
0.788362
0.139793
0.128616
0.788433
0.139815
0.128651
0.128613
0.807576
0.139830
0.129371
0.128628
0.276588
0.139830
0.139812
0.128622
0.139803
0.139812
0.209637
0.139789
0.793902
0.128563
0.139887
0.128671
0.139815
0.209759
0.128655
0.139812
0.128588
0.807497
0.139763
0.139815
0.139830
0.789112
0.128616
0.128689
0.788390
0.789112
0.139852
0.788449
0.128567
0.803603
0.788398
0.788459
0.128588
0.139815
0.276588
0.139818
0.788468
0.787828
0.139815
0.276588
0.795875
0.139852
0.128622
0.788350
0.128630
0.788445
0.788476
0.139830
0.128589
0.128589
0.129224
0.276635
0.129371
0.128655
0.276588
0.139909
0.788390
0.788423
0.139815
0.128569
0.139812
0.129165
0.207865
0.128588
0.139815
0.139815
0.139795
0.788430
0.128655
0.130173
0.788324
0.139812
0.760355
0.788414
0.130173
0.139909
0.139795
0.788435
0.209637
0.788357
0.139849
0.128655
0.128651
0.788390
0.128672
0.808959
0.128629
0.129165
0.788468
0.139830
0.128651
0.128599
0.782966
0.135360
0.794079
0.128672
0.128671
0.139909
0.139812
0.139803
0.128650
0.788477
0.139812
0.128672
0.788431
0.128613
0.128563
0.788424
0.789112
0.788459
0.209744
0.128567
0.788477
0.128630
0.139815
0.139815
0.788052
0.139830
0.787985
0.788419
0.128629
0.128672
0.788430
0.139815
0.788465
0.140046
0.128613
0.128628
0.128672
0.139812
0.129224
0.787772
0.128613
0.788375
0.135360
0.128589
0.128630
0.128567
0.139763
0.788418
0.276588
0.128622
0.789112
0.788415
0.128599
0.788357
0.139843
0.788357
0.128599
0.181795
0.788390
0.129224
0.128672
0.789112
0.139830
0.128616
0.128616
0.276588
0.207865
0.128622
0.788489
0.788438
0.276570
0.139795
0.128700
0.788393
0.128671
0.128655
0.139861
0.788382
0.139812
0.128589
0.788335
0.139803
0.209759
0.788480
0.139793
0.788390
0.139818
0.128622
0.615375
0.788467
0.128655
0.139803
0.788399
0.128630
0.788010
0.139909
0.128629
0.788477
0.788447
0.788429
0.128589
0.808977
0.788489
0.128622
0.788360
0.788410
0.128567
0.128567
0.135060
0.128629
0.128599
0.139812
0.128689
0.209759
0.128650
0.789112
0.128671
0.139763
0.788390
0.128651
0.788398
0.788350
0.128589
0.788390
0.788494
0.787955
0.788474
0.128672
0.446497
0.128671
0.788474
0.129371
0.788424
0.809015
0.788445
0.129165
0.128599
0.789112
0.788350
