0.840290
0.840206
0.840319
0.840279
0.840305
0.268777
0.268645
0.268756
0.268694
0.840275
0.840276
0.268713
0.840195
0.840239
0.268709
0.268740
0.268600
0.840304
0.268756
0.840240
0.840170
0.268771
0.268680
0.840211
0.268717
0.840224
0.268694
0.268768
0.268756
0.840302
0.840290
0.840242
0.840302
0.268756
0.268713
0.268638
0.268762
0.840208
0.840287
0.840279
0.268771
0.268584
0.840203
0.268694
0.268779
0.268694
0.840264
0.840276
0.586425
0.268803
0.840205
0.840256
0.840239
0.840253
0.840291
0.840325
0.840203
0.840194
0.840279
0.268619
0.268610
0.268584
0.268803
0.268803
0.840213
0.268596
0.840293
0.819221
0.287944
0.840279
0.840295
0.268640
0.268576
0.840250
0.268771
0.840170
0.840171
0.840253
0.268756
0.840283
0.840270
0.840275
0.840252
0.268756
0.840171
0.268719
0.840328
0.840205
0.840195
0.840253
0.268581
0.840205
0.268779
0.840226
0.840195
0.840205
0.840253
0.840221
0.268655
0.268660
0.268639
0.268779
0.840227
0.268756
0.268771
0.840205
0.268771
0.268638
0.268789
0.268581
0.840255
0.268756
0.840300
0.268803
0.268581
0.840205
0.268639
0.268717
0.840273
0.268581
0.840253
0.840319
0.268789
0.268600
0.268639
0.840157
0.268670
0.840264
0.268640
0.268667
0.268717
0.268779
0.800665
0.840293
0.268719
0.268709
0.840305
0.840206
0.268768
0.840247
0.840205
0.840254
0.840205
0.268595
0.268723
0.840228
0.840264
0.268803
0.840170
0.268754
0.840175
0.268713
0.840167
0.446790
0.268771
0.840293
0.268803
0.268667
0.268771
0.840163
0.268771
0.840302
0.840275
0.268723
0.840224
0.840346
0.840330
0.268619
0.840322
0.268640
0.268660
0.268584
0.268783
0.840264
0.268600
0.840300
0.840262
0.840160
0.268774
0.268771
0.840160
0.840205
0.268623
0.840160
0.840170
0.840252
0.840263
0.840264
0.840211
0.268775
0.268803
0.268754
0.268645
0.840295
0.268639
0.268680
0.268771
0.268595
0.268687
0.840240
0.268670
0.840171
0.268670
0.840253
0.840253
0.840253
0.268779
0.840170
0.268788
0.268581
0.840205
0.268687
0.268779
0.268783
0.268680
0.268670
0.840305
0.840170
0.840195
0.268723
0.840225
0.840321
0.268771
0.840269
0.840304
0.268596
0.268756
0.268642
0.268779
0.268783
0.840210
0.840232
0.268600
0.268701
0.268774
0.840225
0.840157
0.268600
0.268779
0.840202
0.268771
0.268775
0.840257
0.840253
0.840205
0.749545
0.268779
0.268810
0.840213
0.840171
0.268771
0.840315
0.268779
0.840327
0.840250
0.840304
0.840178
0.268670
0.268740
0.268680
0.268667
0.268667
0.268640
0.268687
0.840306
0.268771
0.268701
0.840182
0.268596
0.840246
0.268783
0.840239
0.268771
0.268756
0.840268
0.840253
0.840202
0.268779
0.268771
0.840205
0.840239
0.268576
0.268756
0.840259
0.840274
0.840195
0.268783
0.840206
0.268756
0.268775
0.840205
0.840319
0.268655
0.268610
0.840275
0.268775
0.268779
0.840193
0.840160
0.268779
0.268670
0.268789
0.268771
0.268771
0.268607
0.268596
0.840205
0.840216
0.840170
0.840205
0.840192
0.840205
0.840233
0.840215
0.840228
0.268717
0.268803
0.840253
0.840195
0.840209
0.840304
0.840239
0.840246
0.840322
0.728699
0.840205
0.268607
0.268600
0.268645
0.840170
0.773427
0.268701
0.268764
0.268771
0.840188
0.268713
0.840225
0.840159
0.840206
0.268596
0.800665
0.840220
0.268694
0.840302
0.268771
0.840221
0.446790
0.268740
0.840296
0.268789
0.840268
0.268584
0.287944
0.840250
0.268660
0.840253
0.268701
0.840294
0.268756
0.268771
0.840315
0.840325
0.840253
0.268596
0.840201
0.268779
0.840228
0.268700
0.268640
0.840178
0.268771
0.840172
0.268670
0.840178
0.840254
0.840253
0.268660
0.268771
0.840205
0.287944
0.840167
0.268768
0.840279
0.749545
0.840275
0.840238
0.268771
0.268717
0.268667
0.268596
0.268670
0.268687
0.268771
0.268775
0.840170
0.840238
0.268607
0.268701
0.840211
0.268709
0.268642
0.268744
0.268619
0.268701
0.840273
0.840194
0.840270
0.840270
0.840170
0.840300
0.840170
0.840202
0.840205
0.268642
0.840211
0.840326
0.268803
0.268803
0.840157
0.840202
0.268713
0.840253
0.268803
0.840297
0.840275
0.268713
0.840248
0.749545
0.268771
0.840295
0.268619
0.268709
0.840322
0.268742
0.268694
0.268596
0.840252
0.268680
0.840189
0.840279
0.840253
0.840205
0.268640
0.268680
0.268754
0.268660
0.268687
0.268642
0.268619
0.268584
0.268645
0.268667
0.840256
0.268775
0.268708
0.840205
0.840205
0.840205
0.840270
0.840175
0.840253
0.840204
0.268803
0.840163
0.268771
0.840205
0.268639
0.840225
0.268694
0.268687
0.268667
0.268584
0.268642
0.268600
0.268771
0.840250
0.840253
0.268771
0.840240
0.268638
0.840282
0.840305
0.840303
0.840306
0.268793
0.840206
0.268789
0.840213
0.840296
0.833149
0.840171
0.268584
0.268756
0.268768
0.268803
0.268779
0.268694
0.268584
0.268771
0.268775
0.840296
0.268779
0.840315
0.268771
0.840295
0.268584
0.840253
0.840283
0.840226
0.268779
0.268810
0.268779
0.268680
0.840327
0.268771
0.840330
0.268623
0.840223
0.268789
0.840213
0.268639
0.840170
0.268754
0.268742
0.840271
0.840260
0.268779
0.840240
0.268693
0.268687
0.840170
0.839944
0.268645
0.840234
0.840251
0.268756
0.840253
0.840202
0.268638
0.840200
0.268740
0.268640
0.268693
0.268670
0.840206
0.268756
0.840273
0.268783
0.268709
0.268719
0.840171
0.268679
0.508052
0.268822
0.268771
0.268775
0.268779
0.268640
0.268670
0.840259
0.268775
0.268771
0.268756
0.840300
0.268660
0.840253
0.268723
0.781193
0.268593
0.840307
0.840295
0.840264
0.840253
0.840246
0.268670
0.840262
0.840259
0.268810
0.840228
0.268803
0.268596
0.268774
0.840171
0.268680
0.840300
0.840325
0.268771
0.840304
0.840257
0.840205
0.268803
0.268775
0.840194
0.840180
0.840191
0.268754
0.840276
0.268596
0.840233
0.268771
0.268584
0.268771
0.268581
0.268771
0.840178
0.268803
0.840303
0.268803
0.268771
0.268600
0.268586
0.268595
0.268771
0.840159
0.840264
0.268771
0.840203
0.268803
0.268607
0.268694
0.840253
0.268640
0.840182
0.840290
0.268775
0.840315
0.268744
0.268607
0.268600
0.840253
0.840258
0.268789
0.840163
0.840205
0.268771
0.268810
0.840205
0.840253
0.840307
0.268789
0.268645
0.268670
0.268607
0.840238
0.268779
0.840300
0.268779
0.268771
0.268640
0.840209
0.268694
0.840226
0.840325
0.268793
0.840315
0.268723
0.840273
0.840161
0.268731
0.268793
0.840293
0.268719
0.840253
0.268774
0.840209
0.268687
0.268667
0.840253
0.840252
0.268775
0.268740
0.781193
0.268803
0.268584
0.268756
0.840263
0.840317
0.268756
0.268779
0.840258
0.268595
0.840200
0.840240
0.840304
0.840260
0.840195
0.840194
0.840157
0.268740
0.840260
0.268771
0.268771
0.299727
0.268680
0.840162
0.268640
0.840195
0.268771
0.268680
0.268810
0.840170
0.268670
0.268596
0.268639
0.268595
0.840253
0.268774
0.268659
0.840287
0.840325
0.840264
0.268756
0.268771
0.840225
0.268596
0.268771
0.268713
0.840178
0.268619
0.268771
0.268768
0.840183
0.268596
0.840205
0.840315
0.268803
0.268779
0.840227
0.840170
0.268803
0.268775
0.268595
0.268596
0.268670
0.268584
0.840238
0.268584
0.268768
0.268723
0.268779
0.840180
0.840302
0.268771
0.268771
0.840300
0.268779
0.840170
0.268768
0.840201
0.840317
0.840213
0.268789
0.268595
0.840293
0.840253
0.268593
0.840205
0.840205
0.840159
0.840205
0.268693
0.840200
0.268694
0.840175
0.268779
0.268779
0.268713
0.268771
0.268756
0.840242
0.268803
0.268756
0.840257
0.268670
0.840310
0.268756
0.268779
0.268713
0.268595
0.840205
0.268771
0.268584
0.840205
0.268687
0.268789
0.268670
0.268687
0.268771
0.268642
0.840205
0.268584
0.268793
0.268779
0.268756
0.268600
0.268645
0.268771
0.268667
0.840226
0.839944
0.840253
0.268771
0.268720
0.840327
0.840206
0.840226
0.840167
0.840316
0.840218
0.268771
0.268771
0.268768
0.268717
0.840205
0.840295
0.268779
0.268720
0.268756
0.268756
0.268667
0.268775
0.840265
0.840201
0.268584
0.840205
0.268600
0.840180
0.268640
0.268640
0.268619
0.840228
0.268689
0.268586
0.268775
0.268779
0.268713
0.268667
0.268740
0.840253
0.268756
0.268694
0.840307
0.268771
0.268593
0.268667
0.840168
0.268771
0.268584
0.268779
0.268639
0.840321
0.840206
0.840171
0.268768
0.268581
0.840225
0.840242
0.268774
0.361830
0.840199
0.268642
0.840209
0.268639
0.840315
0.268756
0.268701
0.268779
0.840265
0.587716
0.268803
0.840203
0.268701
0.268640
0.268720
0.446790
0.268771
0.840291
0.268670
0.268779
0.268803
0.268793
0.268756
0.840258
0.268771
0.268667
0.840205
0.268774
0.268803
0.840223
0.840188
0.840180
0.268640
0.587716
0.840200
0.268584
0.508052
0.840300
0.840213
0.268779
0.840223
0.268584
0.840288
0.840253
0.268810
0.749545
0.268670
0.840319
0.840304
0.268775
0.840194
0.840201
0.268586
0.268660
0.840182
0.268581
0.840241
0.840255
0.268740
0.268771
0.840205
0.268803
0.268701
0.268607
0.840170
0.840296
0.840170
0.837000
0.840253
0.268584
0.268701
0.840275
0.840205
0.268756
0.268709
0.840210
0.268660
0.268779
0.268754
0.840270
0.268771
0.268779
0.268667
0.268655
0.840253
0.840296
0.268693
0.268719
0.840238
0.840205
0.840316
0.840333
0.268810
0.268740
0.840227
0.840264
0.268581
0.268810
0.840265
0.840192
0.840302
0.268645
0.268774
0.840170
0.840302
0.268640
0.840225
0.268584
0.840257
0.268774
0.840269
0.840163
0.840238
0.268642
0.268756
0.268677
0.268754
0.268720
0.268623
0.268793
0.268640
0.840256
0.840160
0.840233
0.840300
0.268768
0.268768
0.840259
0.268720
0.268788
0.268584
0.268779
0.268768
0.840271
0.840170
0.840211
0.268771
0.268619
0.268584
0.840161
0.840205
0.268771
0.268789
0.268756
0.840296
0.840253
0.840321
0.268719
0.840242
0.446790
0.268756
0.840319
0.268810
0.840238
0.840253
0.268640
0.268670
0.268793
0.268740
0.268670
0.840195
0.268584
0.268607
0.268693
0.840263
0.268647
0.840223
0.268619
0.268771
0.268694
0.840170
0.268719
0.840206
0.840233
0.268667
0.819221
0.268619
0.268771
0.840223
0.840207
0.268694
0.840300
0.268756
0.268771
0.268680
0.840273
0.268619
0.268779
0.268775
0.840264
0.268581
0.840205
0.840293
0.268771
0.268667
0.268639
0.268771
0.840170
0.840170
0.268779
0.840257
0.268584
0.840254
0.268774
0.268640
0.840175
0.268596
0.268693
0.840171
0.268667
0.840221
0.268756
0.268584
0.268698
0.840205
0.268756
0.840253
0.840258
0.268719
0.268584
0.660263
0.840248
0.268775
0.840253
0.268723
0.840317
0.840302
0.268756
0.840175
0.268619
0.268775
0.268607
0.840327
0.268640
0.268623
0.268771
0.268709
0.840163
0.840221
0.268756
0.268595
0.268783
0.840345
0.840253
0.840173
0.268742
0.840305
0.840275
0.840205
0.268719
0.840259
0.840170
0.268619
0.840170
0.840205
0.749545
0.840205
0.268771
0.840170
0.268595
0.840253
0.840218
0.268803
0.840250
0.840205
0.268713
0.268768
0.268645
0.268756
0.840239
0.840305
0.268771
0.840291
0.268709
0.268756
0.268687
0.840326
0.268581
0.840205
0.840213
0.268701
0.268779
0.840216
0.795683
0.268576
0.840272
0.268667
0.268779
0.840192
0.268694
0.268607
0.268788
0.268571
0.268638
0.268584
0.268803
0.268584
0.268740
0.268723
0.268670
0.840258
0.268638
0.840252
0.268810
0.268771
0.268723
0.268771
0.840326
0.268595
0.268775
0.840170
0.840205
0.840300
0.268623
0.840163
0.268670
0.840202
0.840205
0.268680
0.840167
0.840205
0.268607
0.840159
0.268771
0.840279
0.840194
0.268775
0.268660
0.268803
0.268584
0.268756
0.840244
0.268768
0.268667
0.840321
0.268720
0.268638
0.840253
0.268607
0.268596
0.840200
0.268803
0.840192
0.840202
0.268771
0.840330
0.268717
0.840315
0.840163
0.840253
0.268639
0.268639
0.840205
0.840195
0.840254
0.268670
0.840227
0.840171
0.268768
0.268803
0.268771
0.268810
0.268687
0.840182
0.840159
0.268810
0.268779
0.268638
0.268670
0.840233
0.268779
0.268619
0.840253
0.268640
0.268771
0.268779
0.268756
0.268723
0.840225
0.840250
0.840213
0.840306
0.268640
0.268771
0.268709
0.268774
0.840218
0.268779
0.840202
0.840307
0.268638
0.660954
0.840213
0.840275
0.840307
0.840305
0.840267
0.840315
0.840239
0.840253
0.840236
0.268717
0.268745
0.268771
0.268719
0.840287
0.840307
0.268713
0.268771
0.268593
0.840218
0.268645
0.840244
0.268756
0.840178
0.840170
0.840260
0.268581
0.268779
0.268687
0.508052
0.840226
0.268771
0.840205
0.268771
0.840201
0.268744
0.268670
0.840253
0.268775
0.268803
0.840305
0.268771
0.268634
0.268667
0.268600
0.268756
0.819221
0.268584
0.268768
0.268771
0.268775
0.840307
0.268771
0.268667
0.840296
0.840225
0.268771
0.840300
0.268723
0.268771
0.268793
0.840236
0.840236
0.268774
0.840265
0.268803
0.840315
0.840180
0.840223
0.840205
0.840330
0.268768
0.840332
0.840194
0.840253
0.268670
0.268777
0.840315
0.840170
0.840253
0.268701
0.268803
0.268595
0.840205
0.268667
0.840253
0.268771
0.268775
0.840258
0.840251
0.272328
0.840171
0.840303
0.840195
0.840270
0.840253
0.268694
0.268670
0.268638
0.840159
0.268745
0.840206
0.268783
0.840171
0.840326
0.840326
0.268670
0.268771
0.268747
0.840289
0.268595
0.857515
0.268756
0.840279
0.840253
0.840183
0.268771
0.840330
0.268581
0.840170
0.268768
0.268639
0.268740
0.840225
0.268771
0.268793
0.840228
0.268771
0.268584
0.446790
0.268655
0.840205
0.840185
0.268670
0.840253
0.840172
0.268667
0.268640
0.268793
0.268771
0.268660
0.268694
0.268756
0.840205
0.840171
0.840346
0.840157
0.268645
0.268771
0.840315
0.840246
0.268693
0.840288
0.268771
0.268771
0.268701
0.840253
0.840247
0.840245
0.840253
0.840273
0.268596
0.840194
0.268596
0.268645
0.840242
0.268717
0.268725
0.268740
0.840261
0.840275
0.268667
0.840330
0.268756
0.840263
0.840253
0.268694
0.840188
0.268779
0.840205
0.840265
0.268771
0.840253
0.268803
0.268740
0.268771
0.268607
0.268660
0.268660
0.840246
0.268779
0.268581
0.268694
0.268771
0.840171
0.840253
0.840204
0.840300
0.840295
0.268670
0.840273
0.840258
0.268774
0.268623
0.840305
0.268771
0.268771
0.840205
0.268667
0.840192
0.840170
0.268670
0.840194
0.268771
0.840203
0.268768
0.840232
0.840205
0.268701
0.840253
0.268756
0.268600
0.268584
0.268670
0.268803
0.840300
0.840300
0.268803
0.840253
0.840289
0.268693
0.840245
0.268638
0.840253
0.268754
0.268774
0.840246
0.840205
0.840268
0.268740
0.268771
0.268771
0.268771
0.268754
0.840253
0.268771
0.840213
0.268789
0.840237
0.268701
0.840304
0.840291
0.268645
0.268670
0.268607
0.268687
0.268701
0.268642
0.268793
0.268694
0.840296
0.840317
0.268576
0.840319
0.840253
0.840205
0.268754
0.840175
0.840171
0.268638
0.840195
0.840253
0.268793
0.268660
0.749545
0.268640
0.840291
0.268771
0.268779
0.268596
0.268744
0.840257
0.268774
0.840210
0.840300
0.268779
0.268576
0.840253
0.840273
0.268779
0.268670
0.268670
0.268689
0.840157
0.268709
0.840263
0.268640
0.268756
0.268788
0.840300
0.268719
0.268779
0.268771
0.268774
0.268670
0.268676
0.268720
0.268800
0.268771
0.268756
0.840257
0.268756
0.840304
0.840326
0.840253
0.840195
0.840218
0.268756
0.268771
0.268774
0.268803
0.840253
0.268756
0.840238
0.749545
0.508052
0.268670
0.840225
0.268595
0.268640
0.268771
0.268645
0.840253
0.840256
0.840188
0.840205
0.840195
0.840216
0.840253
0.840205
0.268774
0.840195
0.840246
0.268584
0.268687
0.840192
0.840202
0.840259
0.268619
0.268771
0.840291
0.268639
0.268756
0.268600
0.268667
0.840203
0.840303
0.268596
0.268717
0.268645
0.840207
0.268771
0.268607
0.268756
0.840261
0.268793
0.840255
0.268645
0.268779
0.268779
0.840291
0.268774
0.268783
0.268607
0.268607
0.268596
0.268645
0.268584
0.840239
0.268717
0.840208
0.268768
0.268754
0.268670
0.268638
0.268689
0.840257
0.840188
0.840268
0.268810
0.268640
0.840193
0.840228
0.268756
0.268667
0.840307
0.268754
0.268660
0.268771
0.268771
0.268581
0.840239
0.268803
0.840170
0.840253
0.268640
0.268667
0.840205
0.840205
0.840205
0.840183
0.840289
0.840316
0.268756
0.840239
0.268694
0.840291
0.840304
0.840183
0.268719
0.268774
0.268771
0.268600
0.840225
0.840205
0.840253
0.840253
0.840256
0.268771
0.268719
0.840279
0.268670
0.287944
0.268740
0.268623
0.840228
0.268771
0.268687
0.268771
0.840246
0.840302
0.268725
0.268771
0.840321
0.268771
0.840242
0.840300
0.268670
0.840201
0.268810
0.819221
0.446790
0.840202
0.840205
0.268756
0.840205
0.840330
0.840330
0.268756
0.268639
0.840225
0.268771
0.268600
0.840271
0.446790
0.840225
0.840226
0.840206
0.840265
0.268771
0.840170
0.840161
0.268740
0.840271
0.268701
0.268744
0.268771
0.840275
0.268775
0.840275
0.268756
0.268803
0.840253
0.840253
0.268687
0.840180
0.840253
0.268771
0.268756
0.268810
0.287944
0.840204
0.840205
0.840157
0.718175
0.268775
0.840227
0.268740
0.268723
0.268803
0.268756
0.268670
0.268768
0.268638
0.268701
0.268771
0.840283
0.840272
0.840244
0.840161
0.840183
0.268667
0.840194
0.268584
0.268803
0.268771
0.840170
0.268723
0.840160
0.840205
0.840250
0.749545
0.840207
0.268701
0.268774
0.268680
0.268667
0.840233
0.840253
0.268771
0.840238
0.268779
0.268756
0.840161
0.840253
0.268593
0.268581
0.268783
0.840315
0.268768
0.268638
0.840242
0.840226
0.840276
0.840218
0.268616
0.268670
0.840206
0.268756
0.840170
0.268779
0.268667
0.268771
0.268771
0.268670
0.840205
0.840310
0.840194
0.840228
0.840205
0.840259
0.840197
0.268694
0.268640
0.268756
0.268771
0.840242
0.840253
0.268619
0.268713
0.268584
0.268775
0.840260
0.268771
0.268719
0.840319
0.268793
0.840295
0.268713
0.268783
0.840307
0.840315
0.840242
0.268720
0.840199
0.268607
0.268771
0.268779
0.268680
0.268779
0.268771
0.446790
0.840264
0.268771
0.268756
0.268779
0.840241
0.268771
0.840253
0.268810
0.840170
0.840264
0.840279
0.268638
0.840251
0.268803
0.268756
0.268756
0.840274
0.268639
0.268768
0.840302
0.268607
0.268756
0.268744
0.840163
0.268660
0.268771
0.268670
0.840242
0.840225
0.840169
0.840322
0.840175
0.840253
0.268713
0.268756
0.268581
0.840253
0.840253
0.268655
0.840322
0.840160
0.840296
0.268667
0.268771
0.268655
0.840213
0.840300
0.268660
0.840213
0.268595
0.268619
0.268788
0.268670
0.268610
0.840190
0.268660
0.840307
0.268687
0.840259
0.840325
0.268803
0.268775
0.268740
0.840321
0.268694
0.840315
0.268771
0.268709
0.840263
0.840256
0.840315
0.446790
0.268771
0.268810
0.840182
0.268576
0.268771
0.840279
0.268584
0.268680
0.840249
0.268788
0.268775
0.840300
0.840211
0.840171
0.840216
0.268771
0.840296
0.840188
0.268754
0.268771
0.268670
0.840195
0.840205
0.840319
0.587716
0.268717
0.840225
0.268774
0.268584
0.840170
0.268756
0.268788
0.268803
0.268783
0.268640
0.268581
0.840253
0.840300
0.840189
0.840183
0.840279
0.840300
0.268771
0.268619
0.840203
0.268640
0.268810
0.268779
0.840183
0.840189
0.840221
0.268756
0.268775
0.840253
0.268756
0.840205
0.840270
0.268667
0.268619
0.840225
0.268779
0.268756
0.268581
0.840249
0.268774
0.840157
0.840315
0.268771
0.840213
0.840205
0.268660
0.268619
0.840170
0.840251
0.268774
0.268779
0.268709
0.268771
0.268743
0.268803
0.268694
0.268771
0.840321
0.840206
0.268756
0.840253
0.749545
0.840315
0.840242
0.268783
0.268640
0.840202
0.268701
0.268607
0.268660
0.840182
0.268771
0.840307
0.268694
0.268713
0.840303
0.840192
0.840244
0.268774
0.299727
0.840227
0.268600
0.268771
0.268771
0.268810
0.840170
0.268771
0.268774
0.268771
0.268694
0.268713
0.840302
0.268744
0.268584
0.268793
0.840225
0.840306
0.268783
0.840245
0.268701
0.840178
0.268660
0.840264
0.268774
0.268771
0.840170
0.268680
0.268639
0.268768
0.840256
0.268584
0.268640
0.268771
0.840170
0.840205
0.840228
0.268756
0.840195
0.268619
0.268803
0.268638
0.840206
0.268595
0.268788
0.840306
0.840319
0.268670
0.840300
0.268600
0.268684
0.840206
0.840205
0.268754
0.840170
0.268756
0.840249
0.268768
0.268655
0.840248
0.268771
0.268756
0.268740
0.268775
0.840216
0.268709
0.840211
0.268687
0.268775
0.840276
0.268705
0.268771
0.268793
0.268779
0.268723
0.268640
0.840226
0.840175
0.840223
0.268733
0.840195
0.840315
0.840253
0.840253
0.840253
0.268571
0.840223
0.268667
0.268680
0.268771
0.840300
0.840248
0.268701
0.749545
0.840247
0.840205
0.268616
0.840241
0.268771
0.268645
0.840205
0.268740
0.840170
0.268596
0.268756
0.840248
0.268680
0.840201
0.840248
0.268687
0.781193
0.840171
0.268756
0.840205
0.268743
0.268756
0.586425
0.840290
0.268771
0.268667
0.268687
0.268647
0.840205
0.268720
0.268680
0.840270
0.268581
0.586425
0.840165
0.268670
0.840257
0.268779
0.268584
0.361830
0.840242
0.840300
0.268660
0.840346
0.268771
0.268660
0.268638
0.840307
0.840287
0.840195
0.268638
0.268771
0.268723
0.840205
0.268694
0.268756
0.268680
0.268771
0.840253
0.840283
0.840236
0.268771
0.840250
0.840225
0.840223
0.268670
0.268719
0.840178
0.268701
0.268595
0.840253
0.268756
0.268694
0.268581
0.268581
0.835749
0.268756
0.268740
0.840296
0.268774
0.840240
0.840170
0.840202
0.840255
0.840226
0.840240
0.268768
0.268639
0.268803
0.840253
0.268596
0.268595
0.586425
0.268607
0.840326
0.840253
0.840205
0.840205
0.268803
0.840291
0.268660
0.268680
0.840253
0.268771
0.840205
0.840253
0.268667
0.268771
0.268756
0.268581
0.268670
0.268646
0.840170
0.268680
0.840163
0.268640
0.268670
0.268680
0.268803
0.268640
0.268670
0.840251
0.268719
0.268803
0.840305
0.268756
0.840279
0.840156
0.840205
0.840192
0.840291
0.268600
0.268779
0.268670
0.840256
0.268701
0.840237
0.268810
0.268756
0.268771
0.268639
0.840225
0.268803
0.840253
0.268771
0.840253
0.268771
0.840171
0.268762
0.268638
0.840253
0.268687
0.268701
0.268680
0.268670
0.840270
0.840205
0.840300
0.840223
0.268660
0.268803
0.840253
0.840236
0.840248
0.840192
0.268771
0.268810
0.840202
0.268595
0.840212
0.840297
0.781193
0.840221
0.840264
0.840263
0.268687
0.840253
0.840328
0.268771
0.840226
0.840269
0.840263
0.268771
0.840307
0.268756
0.268639
0.840242
0.268788
0.840218
0.268783
0.840319
0.840200
0.268640
0.268596
0.268680
0.268774
0.268660
0.840197
0.840202
0.268595
0.840228
0.268645
0.268581
0.840255
0.268701
0.840253
0.268584
0.268693
0.268779
0.268779
0.268756
0.268744
0.268771
0.268709
0.840205
0.840321
0.840249
0.840175
0.268576
0.840253
0.268645
0.268623
0.840211
0.840273
0.840205
0.840315
0.268771
0.268788
0.268771
0.840185
0.268640
0.268771
0.268779
0.840253
0.268783
0.840194
0.840170
0.800665
0.268701
0.268789
0.268679
0.840213
0.840205
0.840293
0.840250
0.268779
0.268720
0.268756
0.268689
0.268638
0.268619
0.268645
0.268754
0.268803
0.840253
0.840279
0.268756
0.268701
0.268680
0.840268
0.840253
0.840253
0.840202
0.840173
0.840253
0.840188
0.840224
0.268756
0.268779
0.840315
0.268581
0.840170
0.268779
0.268771
0.268771
0.268788
0.268771
0.268645
0.840202
0.840259
0.268595
0.268771
0.268756
0.268680
0.840205
0.840225
0.268756
0.840270
0.840170
0.268660
0.749545
0.268771
0.268756
0.840205
0.268771
0.840228
0.268584
0.268596
0.268779
0.840253
0.268771
0.268639
0.268670
0.268756
0.840205
0.268584
0.840275
0.268655
0.840279
0.268756
0.840171
0.840238
0.268584
0.840258
0.840257
0.268771
0.268740
0.268771
0.840215
0.268640
0.268595
0.840084
0.268756
0.840205
0.268655
0.840205
0.268660
0.840319
0.840203
0.268701
0.268779
0.840271
0.268771
0.268645
0.268754
0.840264
0.840264
0.268803
0.268789
0.840317
0.840325
0.268677
0.446790
0.840202
0.268771
0.840218
0.840205
0.840211
0.840205
0.268803
0.840287
0.781193
0.840202
0.268788
0.268670
0.268680
0.268639
0.268619
0.840186
0.840275
0.840264
0.268667
0.268803
0.268779
0.268756
0.268639
0.840275
0.268596
0.840215
0.840182
0.268717
0.840246
0.268774
0.840330
0.268646
0.268720
0.840227
0.268771
0.268740
0.268660
0.268744
0.268756
0.840171
0.840258
0.749545
0.268779
0.840202
0.840253
0.840233
0.840247
0.840167
0.840170
0.840279
0.268595
0.840253
0.268771
0.840269
0.268754
0.268756
0.840253
0.840205
0.840225
0.268771
0.840275
0.840163
0.268756
0.833149
0.268713
0.840193
0.833149
0.268810
0.840315
0.840229
0.268789
0.840191
0.840297
0.831501
0.268803
0.268789
0.840253
0.840283
0.840236
0.268667
0.268793
0.268717
0.268756
0.268642
0.268771
0.840256
0.840253
0.268584
0.268581
0.840205
0.268771
0.268680
0.268596
0.268687
0.268713
0.840296
0.268756
0.268744
0.840205
0.840194
0.840270
0.268775
0.840249
0.840210
0.840211
0.840205
0.268660
0.268779
0.840225
0.268576
0.268660
0.268725
0.840190
0.840211
0.840254
0.268803
0.268639
0.268616
0.268754
0.268596
0.840274
0.268619
0.268756
0.840169
0.840170
0.840253
0.268645
0.268779
0.840271
0.268771
0.840264
0.268713
0.840271
0.840221
0.268607
0.268779
0.268623
0.268756
0.268756
0.840315
0.840300
0.840272
0.840253
0.268740
0.840235
0.840291
0.840242
0.268660
0.268642
0.840170
0.840270
0.840205
0.840170
0.268701
0.268660
0.268584
0.840304
0.781193
0.840180
0.840175
0.840253
0.840293
0.840253
0.840253
0.840199
0.268640
0.840315
0.268720
0.840204
0.840213
0.840165
0.840300
0.268670
0.268701
0.268779
0.268771
0.268754
0.268593
0.840253
0.287944
0.268640
0.268779
0.840269
0.268655
0.840302
0.268771
0.840307
0.268623
0.268756
0.840171
0.840239
0.840287
0.268687
0.268810
0.268687
0.840302
0.268803
0.840192
0.840302
0.268788
0.268771
0.840273
0.840315
0.268640
0.840325
0.840313
0.268771
0.361830
0.268810
0.268771
0.508052
0.840264
0.268771
0.840260
0.268596
0.268771
0.268771
0.268789
0.268740
0.840237
0.268771
0.840304
0.840205
0.268771
0.840259
0.268638
0.840194
0.268607
0.268756
0.840183
0.268719
0.840253
0.840253
0.268756
0.840200
0.840194
0.840330
0.840264
0.840194
0.268639
0.268717
0.268779
0.840194
0.840263
0.268667
0.268771
0.268595
0.840242
0.268810
0.840223
0.840258
0.268768
0.840242
0.268717
0.268687
0.268803
0.268596
0.840253
0.840251
0.840185
0.268771
0.268768
0.268660
0.268680
0.268768
0.268640
0.840207
0.268803
0.840249
0.840315
0.268774
0.840207
0.268619
0.268771
0.268771
0.840178
0.268694
0.840255
0.840175
0.268638
0.268771
0.268709
0.268771
0.268687
0.268670
0.268771
0.268638
0.840253
0.840205
0.840253
0.268775
0.268771
0.268779
0.840205
0.268756
0.268701
0.840195
0.268774
0.840206
0.268756
0.268756
0.840192
0.840194
0.268720
0.268638
0.268655
0.268581
0.287944
0.840293
0.840271
0.268771
0.268756
0.268640
0.268719
0.268810
0.268774
0.268723
0.268670
0.268660
0.840321
0.268771
0.268771
0.268660
0.268756
0.268723
0.840232
0.268600
0.268777
0.268756
0.840315
0.749545
0.268803
0.840300
0.268756
0.840245
0.840205
0.268642
0.840300
0.268687
0.268607
0.268756
0.840325
0.840327
0.268754
0.840325
0.268640
0.268717
0.268775
0.268810
0.840253
0.268793
0.840283
0.840330
0.840300
0.268756
0.840268
0.840205
0.268655
0.840205
0.840239
0.268595
0.268803
0.840271
0.840194
0.268647
0.268705
0.781193
0.268714
0.268676
0.840235
0.840178
0.840183
0.840160
0.268754
0.268771
0.268775
0.268719
0.840205
0.840253
0.840205
0.840315
0.268754
0.268607
0.840253
0.840170
0.268775
0.268717
0.840253
0.268774
0.840283
0.840252
0.840216
0.840327
0.840218
0.268774
0.268640
0.268803
0.268803
0.268607
0.840253
0.268581
0.268779
0.840218
0.268774
0.268756
0.268596
0.268619
0.268680
0.840205
0.840252
0.840253
0.840300
0.268670
0.268596
0.840165
0.268756
0.840346
0.268756
0.840205
0.268803
0.840170
0.268779
0.840270
0.268695
0.840205
0.840183
0.268640
0.660263
0.268584
0.840319
0.268779
0.268771
0.268680
0.840264
0.268607
0.268694
0.268756
0.840275
0.268693
0.840238
0.840240
0.840293
0.268768
0.840228
0.840315
0.840170
0.840226
0.268619
0.268694
0.800665
0.268645
0.268779
0.268581
0.268619
0.840258
0.268667
0.840229
0.840205
0.268640
0.840245
0.840257
0.268756
0.268771
0.840165
0.840236
0.840287
0.268754
0.268771
0.268584
0.840225
0.268771
0.268754
0.268774
0.840233
0.840188
0.840276
0.840256
0.268779
0.840194
0.268771
0.840205
0.268584
0.268771
0.268687
0.840205
0.268771
0.840260
0.268595
0.840247
0.840296
0.840188
0.840206
0.268771
0.840297
0.840325
0.840226
0.268774
0.840202
0.840249
0.268775
0.268655
0.268687
0.840225
0.268680
0.840213
0.268619
0.268775
0.268667
0.268680
0.840303
0.840263
0.749545
0.840191
0.268803
0.268793
0.840270
0.268680
0.840162
0.840202
0.840160
0.840291
0.840170
0.268803
0.840315
0.268596
0.446790
0.268598
0.268789
0.840205
0.268810
0.840163
0.268687
0.268600
0.840264
0.268584
0.840316
0.840279
0.268756
0.840157
0.840159
0.840238
0.268667
0.268719
0.840253
0.268779
0.268783
0.840226
0.268771
0.840170
0.840163
0.268775
0.299727
0.268619
0.268687
0.840254
0.268779
0.268687
0.268764
0.840255
0.840295
0.840205
0.840250
0.840293
0.268638
0.840261
0.268775
0.268576
0.268793
0.268810
0.268756
0.268581
0.840290
0.268779
0.268680
0.268779
0.840330
0.268660
0.268779
0.840328
0.268779
0.268595
0.840206
0.268720
0.840264
0.268745
0.268803
0.268779
0.840205
0.840253
0.840290
0.840250
0.268779
0.268667
0.840206
0.268670
0.268584
0.840325
0.840170
0.268756
0.268756
0.840207
0.268655
0.268779
0.840200
0.840171
0.268660
0.840206
0.840253
0.268655
0.268779
0.268623
0.840275
0.840255
0.840202
0.840241
0.840270
0.268788
0.268771
0.268660
0.268619
0.840271
0.268771
0.840268
0.268771
0.840228
0.268719
0.268756
0.268756
0.587716
0.268754
0.586425
0.268667
0.268756
0.840253
0.268771
0.840305
0.840162
0.268670
0.840229
0.268667
0.268723
0.840270
0.840304
0.840279
0.268756
0.800665
0.268756
0.268744
0.268771
0.840253
0.268774
0.840251
0.840253
0.840224
0.268680
0.268779
0.268642
0.840170
0.840233
0.268720
0.268596
0.272328
0.268788
0.268774
0.268584
0.840240
0.268639
0.268783
0.268584
0.840170
0.268640
0.268803
0.268694
0.840253
0.840205
0.840256
0.840291
0.840248
0.840271
0.268709
0.840242
0.268600
0.268754
0.840287
0.840258
0.268775
0.268687
0.268779
0.840205
0.268645
0.840253
0.268655
0.268709
0.840253
0.268779
0.840178
0.840247
0.268779
0.840170
0.840205
0.840232
0.840194
0.840190
0.840171
0.268680
0.268756
0.840296
0.840321
0.268744
0.840205
0.840242
0.840253
0.268768
0.840300
0.840253
0.268680
0.840170
0.268771
0.268670
0.840293
0.840170
0.268596
0.840316
0.840233
0.840303
0.268771
0.840275
0.840258
0.840319
0.840316
0.840233
0.268803
0.268667
0.268701
0.268771
0.268775
0.268693
0.840170
0.268756
0.268640
0.840170
0.840291
0.268586
0.268756
0.840225
0.840239
0.268768
0.840264
0.840258
0.268655
0.840325
0.268740
0.268775
0.268607
0.840290
0.268584
0.840275
0.268660
0.268719
0.268771
0.268789
0.268744
0.268584
0.840211
0.840202
0.268600
0.268744
0.840236
0.268774
0.268756
0.268771
0.268789
0.268717
0.268779
0.268803
0.268721
0.840233
0.840273
0.840178
0.840163
0.840291
0.840193
0.840861
0.268793
0.268694
0.268713
0.268670
0.750878
0.268581
0.268779
0.268640
0.840248
0.268803
0.819221
0.268774
0.268709
0.840183
0.268667
0.268788
0.268754
0.268600
0.840253
0.840268
0.268756
0.268713
0.840295
0.268771
0.268720
0.840233
0.840202
0.840302
0.840253
0.268788
0.840218
0.268595
0.268595
0.840270
0.840253
0.268680
0.840275
0.840253
0.840233
0.268756
0.268771
0.268687
0.840175
0.840290
0.268788
0.840316
0.268779
0.268619
0.840205
0.268701
0.268788
0.268687
0.268771
0.840239
0.268754
0.840205
0.840228
0.268581
0.268647
0.287944
0.840201
0.268803
0.268789
0.268771
0.268779
0.840211
0.268771
0.268803
0.268680
0.840178
0.268660
0.268581
0.840270
0.840163
0.268723
0.840201
0.268595
0.287944
0.268768
0.840194
0.268584
0.268771
0.840245
0.840307
0.840239
0.268771
0.268779
0.840325
0.840233
0.268660
0.840170
0.840175
0.840253
0.840192
0.840241
0.268768
0.840253
0.268667
0.268756
0.268576
0.840256
0.268694
0.840205
0.268623
0.840170
0.268771
0.268756
0.268596
0.840171
0.840282
0.268694
0.840279
0.268717
0.268667
0.268775
0.840170
0.840296
0.840253
0.840156
0.840253
0.840296
0.268771
0.840288
0.268756
0.840253
0.268596
0.840242
0.840183
0.268744
0.268723
0.268720
0.268740
0.840273
0.840270
0.840241
0.840315
0.268600
0.268581
0.268595
0.840195
0.268581
0.268640
0.840253
0.268771
0.268713
0.268756
0.840175
0.268775
0.268639
0.268740
0.268607
0.268771
0.840256
0.268639
0.840255
0.268768
0.840163
0.268595
0.268584
0.840239
0.268756
0.840275
0.840253
0.840270
0.268793
0.840162
0.268756
0.268788
0.268756
0.268779
0.840205
0.268754
0.268701
0.268774
0.840315
0.268771
0.840253
0.268771
0.840271
0.840319
0.840258
0.840228
0.268756
0.268768
0.840193
0.840305
0.268788
0.268607
0.268756
0.268721
0.268788
0.268660
0.840304
0.268771
0.749545
0.840249
0.840315
0.840171
0.840248
0.268619
0.268640
0.268654
0.268600
0.268745
0.268779
0.840326
0.268694
0.840260
0.287944
0.268720
0.268720
0.268584
0.840225
0.268670
0.268771
0.268581
0.268600
0.840212
0.268723
0.840295
0.840233
0.840175
0.268660
0.840300
0.840300
0.268584
0.268607
0.840203
0.268775
0.846115
0.840223
0.749545
0.587716
0.840170
0.840205
0.268717
0.840202
0.840221
0.840205
0.840211
0.840159
0.268756
0.840244
0.840315
0.840316
0.268660
0.840171
0.268779
0.840260
0.268779
0.268596
0.268740
0.840194
0.268713
0.268793
0.268771
0.268670
0.268779
0.840260
0.268779
0.840159
0.268639
0.268789
0.268680
0.268775
0.268793
0.840161
0.268640
0.268803
0.268667
0.840211
0.268596
0.268775
0.840189
0.268596
0.268756
0.840271
0.840170
0.268771
0.268581
0.268709
0.840253
0.268640
0.299727
0.840203
0.840170
0.268667
0.840205
0.840256
0.268660
0.840205
0.840233
0.268596
0.840327
0.268771
0.268810
0.840205
0.268694
0.840170
0.840202
0.840263
0.840171
0.268779
0.840202
0.268771
0.268747
0.268775
0.268779
0.840183
0.268638
0.840252
0.840192
0.268756
0.268756
0.361830
0.840213
0.840186
0.268694
0.268607
0.268670
0.840202
0.840202
0.840167
0.840225
0.831501
0.840202
0.268596
0.268771
0.840325
0.268607
0.840241
0.268756
0.840270
0.840175
0.268771
0.268803
0.840203
0.268680
0.840319
0.268713
0.268771
0.268713
0.268701
0.840205
0.840264
0.268670
0.840304
0.840253
0.840253
0.840235
0.840265
0.840319
0.840191
0.840205
0.287944
0.268775
0.268771
0.268667
0.840196
0.268756
0.840296
0.268754
0.268714
0.840315
0.840203
0.840253
0.268717
0.268775
0.268774
0.840156
0.268771
0.840202
0.268771
0.268596
0.840205
0.268670
0.840266
0.268779
0.268771
0.268709
0.840188
0.840226
0.840189
0.268771
0.268713
0.840227
0.840322
0.268771
0.840256
0.268768
0.268756
0.268756
0.268584
0.268771
0.268775
0.840274
0.268645
0.268687
0.268775
0.268709
0.840300
0.268810
0.268803
0.840293
0.840159
0.268689
0.268638
0.268645
0.268803
0.840203
0.268709
0.268660
0.268581
0.268756
0.268593
0.840205
0.840315
0.840163
0.840275
0.268600
0.840302
0.840221
0.268667
0.840210
0.268771
0.268771
0.268803
0.840330
0.840199
0.268719
0.268660
0.268584
0.268720
0.268576
0.268771
0.268645
0.840193
0.840170
0.361830
0.840330
0.268771
0.840279
0.268640
0.840218
0.268756
0.268779
0.268768
0.268771
0.268774
0.840226
0.268660
0.840279
0.268771
0.268670
0.840263
0.268581
0.268694
0.268793
0.840257
0.268660
0.840242
0.268775
0.840202
0.268709
0.268695
0.268779
0.268670
0.268771
0.268754
0.268779
0.840260
0.840213
0.840170
0.268756
0.840290
0.840270
0.840170
0.840276
0.268771
0.840253
0.840213
0.840225
0.268639
0.840205
0.508052
0.840330
0.840291
0.268670
0.840259
0.268779
0.840260
0.840303
0.268595
0.268754
0.268576
0.781193
0.840199
0.268642
0.840253
0.268638
0.268768
0.840253
0.268667
0.840317
0.840178
0.268775
0.268771
0.268670
0.268600
0.268771
0.840188
0.840294
0.268577
0.840253
0.268693
0.840303
0.268810
0.268756
0.840333
0.268660
0.268701
0.268639
0.840270
0.268619
0.268771
0.268771
0.840163
0.268740
0.840264
0.840159
0.268774
0.840271
0.268779
0.840305
0.840170
0.840253
0.286145
0.268697
0.268719
0.840211
0.268655
0.272328
0.840239
0.840202
0.840163
0.268655
0.840178
0.268693
0.840221
0.268717
0.268709
0.840191
0.268584
0.840246
0.268756
0.840250
0.840194
0.268771
0.268719
0.840195
0.268640
0.840307
0.268680
0.268584
0.840221
0.268640
0.840302
0.840283
0.268771
0.840315
0.268779
0.268667
0.268655
0.268756
0.268779
0.268619
0.840253
0.268701
0.268756
0.840273
0.840226
0.268670
0.840189
0.268586
0.268595
0.840253
0.840300
0.268756
0.268768
0.268660
0.268607
0.287944
0.268687
0.268756
0.268774
0.268687
0.268756
0.840305
0.268709
0.268623
0.268756
0.749545
0.268803
0.840300
0.268693
0.840250
0.268771
0.840163
0.268793
0.268771
0.840205
0.840225
0.268619
0.840253
0.840190
0.268803
0.840194
0.840205
0.268775
0.840170
0.268744
0.840253
0.268701
0.840160
0.840325
0.268754
0.840253
0.268638
0.268810
0.840253
0.268771
0.840250
0.268779
0.840194
0.840330
0.840253
0.268771
0.840240
0.840273
0.268771
0.840300
0.268667
0.268670
0.268640
0.268660
0.268771
0.268670
0.840226
0.268756
0.268670
0.840199
0.840251
0.268774
0.268660
0.840205
0.268771
0.840256
0.268779
0.268768
0.268756
0.268774
0.268584
0.840279
0.268687
0.840170
0.268771
0.840199
0.840247
0.268645
0.268709
0.268660
0.840226
0.268771
0.268680
0.840188
0.268623
0.268774
0.268803
0.840162
0.268670
0.840250
0.268680
0.840293
0.840254
0.268584
0.840319
0.268740
0.840246
0.840253
0.268680
0.840233
0.840183
0.840224
0.268783
0.840293
0.268771
0.840205
0.840262
0.840239
0.840255
0.840283
0.840315
0.840218
0.268581
0.840195
0.268584
0.268645
0.268788
0.268771
0.268768
0.268639
0.840226
0.840213
0.840224
0.268774
0.268771
0.840248
0.840228
0.800665
0.840211
0.268694
0.361830
0.268670
0.268771
0.268719
0.268756
0.268701
0.840194
0.268670
0.840173
0.268584
0.268713
0.840253
0.840297
0.268771
0.268803
0.840275
0.840224
0.840240
0.268793
0.268779
0.840333
0.840163
0.840283
0.268779
0.268720
0.840267
0.268638
0.840300
0.268670
0.840295
0.268640
0.268640
0.840265
0.268581
0.268709
0.840307
0.840178
0.268779
0.840205
0.840178
0.840227
0.840253
0.840165
0.446790
0.268756
0.840197
0.446790
0.268771
0.268723
0.268768
0.446790
0.268740
0.840317
0.840260
0.840253
0.268775
0.268756
0.268803
0.840315
0.268803
0.268810
0.268771
0.840316
0.840258
0.840084
0.268717
0.840195
0.268670
0.268667
0.840300
0.268667
0.840215
0.268600
0.840188
0.268756
0.268756
0.840253
0.840242
0.840253
0.268754
0.268779
0.840265
0.840253
0.840319
0.268660
0.268771
0.268771
0.268596
0.268803
0.268803
0.268645
0.268581
0.840178
0.268775
0.268771
0.840328
0.268670
0.268740
0.268670
0.819221
0.840291
0.268740
0.268771
0.268789
0.840205
0.840194
0.268779
0.840167
0.268789
0.840239
0.268771
0.840271
0.268713
0.840171
0.840256
0.840204
0.268810
0.840233
0.840257
0.268810
0.268771
0.268774
0.840205
0.840268
0.268596
0.268667
0.840201
0.840207
0.840205
0.840211
0.840295
0.268756
0.268756
0.268717
0.268667
0.268789
0.840300
0.840258
0.268803
0.840317
0.840201
0.840178
0.840332
0.840188
0.840242
0.268645
0.840256
0.268670
0.268584
0.268803
0.840279
0.446790
0.840169
0.268607
0.268680
0.268771
0.287944
0.268775
0.268771
0.840205
0.268771
0.840300
0.268768
0.840245
0.508052
0.268596
0.268756
0.268803
0.268709
0.840275
0.268803
0.840228
0.840297
0.268596
0.268709
0.268803
0.840238
0.840225
0.268771
0.840205
0.840253
0.268680
0.840252
0.268754
0.268756
0.840170
0.840321
0.840253
0.268747
0.268660
0.840180
0.840223
0.268793
0.840223
0.840178
0.840253
0.268756
0.268623
0.268756
0.840192
0.840205
0.268756
0.840259
0.840180
0.268788
0.268684
0.268771
0.268779
0.268743
0.268596
0.840205
0.268584
0.840300
0.840178
0.508052
0.840196
0.268756
0.268642
0.840194
0.840300
0.268756
0.268756
0.268584
0.840170
0.840279
0.268596
0.840294
0.840200
0.840239
0.840239
0.840315
0.840205
0.840170
0.268607
0.268762
0.840330
0.840213
0.840249
0.840260
0.268584
0.840300
0.268640
0.819221
0.840253
0.268779
0.268584
0.268756
0.840188
0.268667
0.840244
0.268717
0.840315
0.840195
0.268793
0.840165
0.840307
0.268581
0.840215
0.268640
0.840253
0.268793
0.749545
0.268670
0.268610
0.268584
0.268756
0.840223
0.268619
0.840315
0.268771
0.840253
0.268709
0.268623
0.840305
0.268660
0.840205
0.268640
0.840194
0.840274
0.840173
0.840282
0.840192
0.268756
0.268793
0.840221
0.268670
0.268810
0.840327
0.268713
0.268768
0.268756
0.268756
0.268822
0.840240
0.840170
0.840170
0.268747
0.840200
0.840253
0.268731
0.840321
0.268670
0.268687
0.268771
0.840317
0.840251
0.268619
0.268774
0.268756
0.268774
0.840274
0.268771
0.840290
0.833149
0.268725
0.840205
0.268774
0.840220
0.268771
0.840253
0.268774
0.268576
0.268581
0.268740
0.268600
0.268709
0.840268
0.840159
0.840206
0.840188
0.268775
0.840287
0.268655
0.840200
0.840242
0.840270
0.268768
0.268783
0.268600
0.268670
0.268779
0.268771
0.840205
0.268709
0.840195
0.840202
0.268756
0.268777
0.268607
0.840293
0.268803
0.840273
0.840253
0.840275
0.840223
0.268756
0.840205
0.840305
0.840205
0.840223
0.268756
0.268777
0.840296
0.840265
0.268667
0.268640
0.268810
0.268623
0.840315
0.840205
0.268642
0.840225
0.268771
0.840205
0.840162
0.268822
0.268779
0.840242
0.840178
0.840247
0.840226
0.268783
0.840216
0.840302
0.840259
0.268595
0.840171
0.840297
0.268756
0.268619
0.268619
0.840248
0.268619
0.268642
0.268705
0.268771
0.268771
0.840270
0.268607
0.268640
0.840279
0.840271
0.840218
0.268607
0.840209
0.268581
0.268596
0.840253
0.840304
0.840191
0.268639
0.840293
0.268756
0.840225
0.268670
0.840170
0.840295
0.840205
0.268756
0.268701
0.268619
0.840199
0.268655
0.287944
0.840170
0.840205
0.268720
0.840330
0.749545
0.840242
0.268803
0.268771
0.287944
0.840328
0.840205
0.268581
0.268740
0.268779
0.268775
0.268775
0.840224
0.268771
0.840248
0.840156
0.835749
0.840330
0.268771
0.840170
0.268803
0.840170
0.268701
0.268687
0.840239
0.268771
0.268756
0.840240
0.268709
0.268687
0.840253
0.268693
0.268774
0.840326
0.268754
0.268640
0.268754
0.268701
0.268789
0.268774
0.840257
0.840250
0.268680
0.268771
0.840317
0.268596
0.840205
0.268779
0.268771
0.840218
0.840180
0.268687
0.268701
0.268756
0.268687
0.268779
0.268756
0.840223
0.840247
0.840239
0.268687
0.268619
0.840303
0.840193
0.268667
0.268646
0.268701
0.268640
0.268713
0.268771
0.268789
0.840305
0.840203
0.833149
0.840205
0.840215
0.840293
0.840258
0.268667
0.840251
0.840215
0.268667
0.268803
0.268754
0.268756
0.840256
0.840211
0.268680
0.840228
0.840239
0.840300
0.268774
0.840253
0.268596
0.268774
0.840253
0.840221
0.840205
0.840220
0.268701
0.268803
0.840258
0.268803
0.840296
0.268803
0.840270
0.268768
0.268756
0.268803
0.268640
0.268667
0.268771
0.840322
0.840253
0.268775
0.840273
0.268640
0.268640
0.268788
0.840206
0.840310
0.268623
0.268638
0.268740
0.268640
0.268771
0.840259
0.840205
0.840225
0.268788
0.840165
0.840205
0.268779
0.268596
0.840325
0.268774
0.840236
0.268719
0.268607
0.268788
0.268810
0.268713
0.840300
0.268803
0.268771
0.268670
0.268720
0.268680
0.268742
0.268660
0.268694
0.268789
0.268771
0.840305
0.840205
0.268619
0.268774
0.268810
0.268810
0.268694
0.268803
0.840300
0.268789
0.268596
0.840192
0.840233
0.840253
0.840223
0.268775
0.840163
0.840260
0.268667
0.268775
0.781193
0.840258
0.840169
0.840333
0.840239
0.268640
0.268595
0.268810
0.268771
0.268670
0.840293
0.840253
0.268779
0.268779
0.840233
0.268793
0.268596
0.268771
0.268645
0.840226
0.268687
0.840205
0.268756
0.840253
0.840221
0.268810
0.268596
0.268822
0.268771
0.840253
0.268803
0.840239
0.268640
0.268640
0.840205
0.268754
0.268640
0.268771
0.268788
0.268771
0.268619
0.268771
0.268744
0.268584
0.840190
0.840226
0.268803
0.840226
0.268756
0.840195
0.840295
0.268581
0.268793
0.268775
0.840247
0.268701
0.268639
0.840315
0.840167
0.840205
0.268754
0.268713
0.268639
0.268756
0.840258
0.840332
0.268640
0.268720
0.840204
0.840170
0.268660
0.840304
0.268747
0.268694
0.840247
0.446790
0.268756
0.840178
0.268619
0.840283
0.268595
0.295132
0.268694
0.268768
0.840254
0.840205
0.268771
0.840203
0.840293
0.268660
0.268723
0.268756
0.268667
0.840170
0.268774
0.268788
0.268793
0.268717
0.840294
0.268607
0.840194
0.446790
0.840186
0.840194
0.268623
0.840273
0.840192
0.840251
0.268596
0.840304
0.268638
0.840293
0.268771
0.848507
0.840202
0.268756
0.268771
0.840253
0.268584
0.268775
0.268733
0.840321
0.268803
0.268756
0.840203
0.840205
0.268665
0.840300
0.268803
0.840250
0.840163
0.840163
0.840211
0.840202
0.840316
0.840204
0.840206
0.268680
0.840227
0.840315
0.840328
0.840170
0.840296
0.268709
0.268701
0.840270
0.840247
0.268667
0.268581
0.840262
0.268640
0.840205
0.840240
0.840205
0.840228
0.268638
0.840183
0.840283
0.800665
0.840213
0.268713
0.268701
0.840328
0.840271
0.840242
0.840302
0.840213
0.268596
0.840207
0.268756
0.268670
0.268771
0.840228
0.840326
0.840264
0.833149
0.268771
0.840228
0.840213
0.268771
0.268667
0.268720
0.840315
0.840300
0.268754
0.840255
0.268680
0.268670
0.840253
0.268639
0.268779
0.268670
0.840207
0.840194
0.840253
0.840288
0.268771
0.840253
0.840226
0.268623
0.840206
0.268687
0.840199
0.268687
0.268771
0.268783
0.840253
0.268660
0.268771
0.268719
0.268775
0.840254
0.268596
0.268803
0.840307
0.840315
0.268607
0.840205
0.840183
0.840304
0.268771
0.840178
0.840246
0.840269
0.268793
0.268774
0.268756
0.268670
0.268655
0.840165
0.840211
0.840330
0.268771
0.268623
0.840303
0.840205
0.268788
0.840294
0.268719
0.268779
0.268774
0.840307
0.840178
0.268640
0.268756
0.840208
0.268595
0.268619
0.268771
0.840253
0.268771
0.840304
0.268771
0.268667
0.268771
0.268719
0.840215
0.268584
0.840275
0.268771
0.840170
0.268740
0.268701
0.840165
0.840205
0.268600
0.781193
0.268670
0.840253
0.268584
0.268694
0.840307
0.268667
0.268596
0.268775
0.268584
0.268756
0.268771
0.840163
0.268640
0.268789
0.268667
0.840315
0.840183
0.268771
0.268803
0.840303
0.268670
0.840238
0.268771
0.840272
0.749545
0.840205
0.268670
0.840307
0.268744
0.268803
0.840165
0.287944
0.268803
0.840202
0.268740
0.268701
0.840205
0.268774
0.268700
0.268654
0.446790
0.268771
0.268717
0.268694
0.268660
0.268779
0.268803
0.268803
0.268803
0.268607
0.268783
0.268756
0.268783
0.840205
0.268771
0.840213
0.268779
0.840315
0.840295
0.268771
0.268619
0.840291
0.268756
0.840300
0.835749
0.268779
0.840307
0.840256
0.268723
0.268789
0.840170
0.268779
0.268777
0.268771
0.840189
0.840205
0.840205
0.840253
0.268713
0.840238
0.268779
0.840178
0.268642
0.840205
0.268709
0.268600
0.268771
0.268740
0.840302
0.268595
0.268810
0.268771
0.840205
0.268775
0.268660
0.840159
0.840262
0.268803
0.840263
0.840170
0.268623
0.268709
0.268810
0.268694
0.840252
0.840328
0.841168
0.268775
0.268803
0.840253
0.268581
0.833149
0.840194
0.268771
0.268584
0.840275
0.840279
0.268595
0.840197
0.840244
0.268774
0.268581
0.268771
0.268771
0.268660
0.840290
0.268719
0.268771
0.268667
0.268719
0.268771
0.840256
0.840279
0.840325
0.268779
0.268775
0.840225
0.268774
0.268638
0.840178
0.268775
0.840250
0.268771
0.268756
0.840330
0.840205
0.268810
0.840170
0.268774
0.840170
0.840241
0.268771
0.268771
0.287944
0.268595
0.840160
0.268670
0.268701
0.840315
0.268793
0.268595
0.268793
0.268584
0.268768
0.268713
0.268774
0.268771
0.268783
0.840315
0.845588
0.268667
0.840245
0.268687
0.268584
0.268576
0.781193
0.268639
0.840319
0.268667
0.268719
0.268720
0.840316
0.268581
0.268771
0.268655
0.840205
0.268596
0.268667
0.268586
0.840307
0.840242
0.268779
0.446790
0.840275
0.268596
0.268775
0.268687
0.840307
0.840241
0.268684
0.840202
0.268771
0.840253
0.840253
0.268771
0.268701
0.840253
0.268723
0.268771
0.840192
0.268779
0.781193
0.840188
0.840315
0.268687
0.840199
0.840245
0.840247
0.268789
0.840205
0.268595
0.268709
0.268581
0.268756
0.840253
0.268660
0.268771
0.840300
0.840178
0.268779
0.840253
0.840170
0.268619
0.268783
0.840253
0.268607
0.840253
0.840244
0.268607
0.840205
0.840252
0.268642
0.268607
0.268771
0.840264
0.268771
0.268584
0.268803
0.268720
0.268779
0.840252
0.840209
0.268619
0.268810
0.840317
0.840205
0.268709
0.268667
0.268670
0.268740
0.840253
0.268701
0.268680
0.840202
0.268581
0.840228
0.840167
0.840264
0.840244
0.268638
0.268756
0.840266
0.268660
0.268740
0.268577
0.840205
0.840264
0.268771
0.840170
0.268694
0.840185
0.840193
0.840205
0.268762
0.268701
0.409998
0.840257
0.268771
0.268754
0.268713
0.268810
0.749545
0.268810
0.268687
0.840215
0.268670
0.840265
0.268774
0.840307
0.268779
0.268680
0.840205
0.268576
0.840304
0.840253
0.268771
0.268775
0.840328
0.268586
0.268775
0.781193
0.840325
0.840255
0.268693
0.840194
0.268756
0.268771
0.268709
0.840202
0.840305
0.268723
0.840205
0.268775
0.268640
0.840242
0.840327
0.268756
0.268771
0.268756
0.838827
0.268680
0.268756
0.268771
0.268638
0.268584
0.268667
0.840175
0.840251
0.840185
0.268713
0.840242
0.268771
0.268779
0.840315
0.268670
0.268576
0.840253
0.268783
0.268725
0.840315
0.840253
0.840205
0.840258
0.840223
0.268639
0.268789
0.840242
0.840205
0.840253
0.840290
0.839944
0.268740
0.840304
0.268771
0.268771
0.840189
0.840205
0.840240
0.840220
0.268694
0.268774
0.840205
0.840170
0.840253
0.268687
0.840293
0.840253
0.268810
0.268788
0.840253
0.268756
0.268803
0.268595
0.840252
0.840203
0.268694
0.268687
0.586425
0.268756
0.268771
0.840250
0.840315
0.840170
0.840257
0.840315
0.840302
0.268810
0.840228
0.268803
0.840253
0.781193
0.840265
0.840157
0.268771
0.268584
0.840326
0.268680
0.268667
0.268576
0.268670
0.840183
0.268645
0.840291
0.268670
0.840291
0.840247
0.840253
0.268640
0.840170
0.840170
0.268655
0.268756
0.268670
0.840194
0.268768
0.840225
0.840228
0.268756
0.840253
0.268639
0.268803
0.268584
0.840213
0.268619
0.840315
0.268788
0.840170
0.268720
0.781193
0.268756
0.840209
0.268646
0.840290
0.268756
0.268779
0.840205
0.268642
0.268803
0.268607
0.268571
0.268670
0.840205
0.268744
0.840295
0.840271
0.268693
0.840226
0.268771
0.840315
0.840295
0.840188
0.840244
0.840205
0.840216
0.268619
0.268788
0.268756
0.840293
0.268754
0.268768
0.840319
0.840194
0.268581
0.268771
0.840316
0.840213
0.840210
0.268771
0.840163
0.840171
0.840295
0.268667
0.268709
0.268793
0.268642
0.840171
0.840213
0.268774
0.840300
0.268779
0.268670
0.268595
0.268595
0.268694
0.840223
0.268756
0.268720
0.840202
0.268581
0.268607
0.840193
0.268701
0.268793
0.268645
0.268595
0.268779
0.268596
0.268774
0.268771
0.268774
0.840202
0.268667
0.268694
0.840319
0.840274
0.840241
0.268771
0.840218
0.268640
0.840253
0.268619
0.268713
0.840259
0.268756
0.268768
0.840242
0.840202
0.840188
0.268771
0.840253
0.268754
0.840205
0.268571
0.268788
0.840209
0.268701
0.840242
0.268771
0.268680
0.268774
0.840195
0.268775
0.268771
0.268586
0.268774
0.268803
0.268645
0.268803
0.268756
0.840191
0.268645
0.268756
0.268694
0.268771
0.268771
0.840253
0.268640
0.586425
0.268713
0.268709
0.268771
0.840315
0.268595
0.268660
0.840263
0.268667
0.268756
0.268694
0.840209
0.268771
0.840206
0.840245
0.268576
0.268756
0.718175
0.840205
0.840253
0.840265
0.446790
0.840307
0.840194
0.268756
0.268768
0.268793
0.268701
0.840171
0.840319
0.840194
0.840269
0.840170
0.268600
0.287944
0.840258
0.840307
0.268660
0.840225
0.268646
0.840330
0.268687
0.840203
0.840265
0.840253
0.268756
0.840315
0.268596
0.840291
0.268645
0.840253
0.268667
0.840213
0.840170
0.268680
0.268607
0.840205
0.840253
0.840223
0.840316
0.268680
0.840275
0.840328
0.268600
0.840325
0.268670
0.268667
0.268638
0.268779
0.840163
0.268774
0.268803
0.268701
0.840203
0.840315
0.268768
0.840163
0.268779
0.840253
0.840253
0.268647
0.268660
0.268810
0.840170
0.268771
0.840291
0.268771
0.268756
0.268586
0.840170
0.840315
0.840253
0.840330
0.840205
0.268701
0.268774
0.840183
0.268756
0.840253
0.840307
0.268713
0.840244
0.840170
0.268667
0.268756
0.268771
0.833149
0.268793
0.268670
0.268771
0.840202
0.268670
0.840220
0.840253
0.268771
0.268709
0.268581
0.268595
0.840271
0.268779
0.268756
0.840253
0.268756
0.840302
0.840257
0.268775
0.840296
0.840296
0.840157
0.268789
0.840307
0.840203
0.268779
0.268754
0.268779
0.268774
0.840254
0.268713
0.840239
0.268596
0.840307
0.840165
0.268584
0.268779
0.268775
0.840205
0.840240
0.268619
0.268771
0.840205
0.840325
0.268771
0.840295
0.268670
0.268581
0.840205
0.840293
0.749545
0.268779
0.840178
0.268713
0.268775
0.840304
0.840213
0.268640
0.840170
0.268775
0.268803
0.268771
0.508052
0.268779
0.840268
0.268775
0.268584
0.268771
0.840264
0.268640
0.268756
0.268670
0.268667
0.840305
0.840256
0.268607
0.268771
0.268756
0.840209
0.268687
0.840241
0.268607
0.268709
0.268756
0.268756
0.840197
0.268803
0.840228
0.268771
0.840305
0.268756
0.268771
0.268754
0.268670
0.268803
0.268694
0.840205
0.268779
0.268793
0.268779
0.840205
0.268768
0.840213
0.268680
0.840207
0.268754
0.840253
0.840184
0.840241
0.268771
0.508052
0.840203
0.268762
0.840315
0.268779
0.268717
0.268660
0.840302
0.840255
0.268694
0.840230
0.268581
0.268584
0.268619
0.840221
0.840291
0.840253
0.268775
0.840262
0.268667
0.268771
0.840201
0.268667
0.840256
0.840200
0.268800
0.268670
0.268596
0.268740
0.268596
0.268640
0.268667
0.268596
0.840241
0.268694
0.268581
0.268619
0.268660
0.268639
0.268771
0.268771
0.840315
0.268771
0.268771
0.268619
0.268638
0.840171
0.840279
0.268596
0.840247
0.268576
0.268788
0.840247
0.268639
0.840307
0.840253
0.840225
0.840205
0.268720
0.268775
0.268595
0.268756
0.840205
0.840328
0.268639
0.268771
0.268771
0.268789
0.840253
0.840266
0.840205
0.268660
0.840195
0.268684
0.268584
0.268793
0.268768
0.268720
0.268756
0.268619
0.749545
0.268771
0.268774
0.268756
0.840270
0.840180
0.268713
0.840264
0.840205
0.268775
0.268596
0.268593
0.840212
0.840253
0.268783
0.268740
0.268584
0.268756
0.268756
0.840315
0.268655
0.268756
0.268667
0.840205
0.840263
0.268667
0.268771
0.840322
0.268779
0.840256
0.840317
0.840239
0.840202
0.840303
0.840183
0.268783
0.840202
0.268600
0.268803
0.840300
0.268771
0.840253
0.840315
0.840300
0.840302
0.840215
0.840205
0.840207
0.268803
0.268694
0.840315
0.268680
0.268596
0.268771
0.268771
0.840256
0.840170
0.268723
0.268667
0.840253
0.840170
0.268771
0.840205
0.268619
0.268803
0.268771
0.840218
0.268771
0.840163
0.840171
0.840170
0.268642
0.840205
0.840194
0.840188
0.268803
0.268670
0.268775
0.840293
0.840302
0.268607
0.840330
0.840328
0.268771
0.840159
0.268800
0.268771
0.840273
0.268667
0.268754
0.268576
0.268667
0.268754
0.268754
0.268771
0.268660
0.268771
0.840190
0.268756
0.840246
0.268771
0.840205
0.749545
0.781193
0.840171
0.268596
0.840202
0.840205
0.268680
0.268619
0.268694
0.840235
0.840333
0.268680
0.840170
0.840296
0.268720
0.268687
0.268779
0.268762
0.840253
0.815383
0.268584
0.840270
0.268756
0.840315
0.268640
0.840165
0.840205
0.268756
0.268771
0.268775
0.840287
0.268771
0.268771
0.268600
0.840170
0.268771
0.800665
0.268596
0.268756
0.781193
0.840186
0.840194
0.840205
0.840206
0.840161
0.268680
0.268639
0.840315
0.268607
0.840253
0.268600
0.840296
0.268756
0.840253
0.268687
0.840326
0.268775
0.840279
0.268680
0.268640
0.268771
0.268600
0.268595
0.268667
0.268725
0.268607
0.268667
0.268771
0.268740
0.268756
0.268793
0.446790
0.268779
0.840240
0.268756
0.268803
0.268788
0.840221
0.840275
0.268581
0.268756
0.268779
0.840267
0.268810
0.840255
0.268719
0.268717
0.268768
0.268771
0.840242
0.840211
0.268713
0.840253
0.268756
0.840205
0.268775
0.840249
0.268640
0.840202
0.268600
0.268775
0.268593
0.840319
0.268596
0.840327
0.840253
0.840161
0.268660
0.840195
0.840252
0.268779
0.840205
0.268803
0.268719
0.840253
0.833149
0.268645
0.268771
0.840242
0.268655
0.268789
0.840253
0.840225
0.268803
0.840218
0.268768
0.268720
0.840170
0.840205
0.268779
0.268768
0.840253
0.268619
0.268576
0.840248
0.268771
0.840170
0.268581
0.840245
0.840270
0.840270
0.268640
0.840253
0.268793
0.268789
0.840194
0.268779
0.268771
0.840205
0.840265
0.268771
0.268667
0.840167
0.268771
0.840315
0.268803
0.268720
0.268584
0.840253
0.840315
0.268694
0.268779
0.840202
0.268619
0.268771
0.268701
0.840205
0.840239
0.840251
0.840253
0.840274
0.840269
0.268756
0.840211
0.268803
0.268619
0.840253
0.840253
0.268756
0.781193
0.840265
0.268740
0.268713
0.268774
0.840315
0.840203
0.268756
0.268771
0.268581
0.268701
0.840238
0.268768
0.840271
0.840260
0.268779
0.840205
0.840268
0.268756
0.840193
0.268779
0.840239
0.268687
0.840182
0.268775
0.840253
0.268771
0.268771
0.268607
0.268571
0.268680
0.840239
0.268774
0.268789
0.840180
0.268709
0.840180
0.840233
0.840156
0.268756
0.268756
0.268779
0.268576
0.840193
0.820574
0.819221
0.840205
0.268660
0.586425
0.268779
0.840195
0.268584
0.840205
0.268584
0.268775
0.840315
0.781193
0.840239
0.840211
0.268584
0.268619
0.268659
0.268756
0.840242
0.840183
0.840296
0.268779
0.268670
0.840188
0.840194
0.840251
0.268655
0.268639
0.268694
0.268619
0.840225
0.268640
0.268771
0.268670
0.268713
0.268693
0.840170
0.840205
0.840253
0.268667
0.268584
0.268788
0.268771
0.840205
0.840242
0.268768
0.840315
0.840300
0.268768
0.268771
0.268584
0.268660
0.268771
0.268667
0.840225
0.840205
0.840268
0.268687
0.268774
0.268771
0.268771
0.840315
0.268694
0.840319
0.840304
0.268774
0.268771
0.268779
0.268619
0.840170
0.840180
0.840213
0.287944
0.268720
0.268720
0.268701
0.268639
0.840170
0.840300
0.840194
0.268670
0.840225
0.268670
0.268667
0.840270
0.840195
0.840160
0.840328
0.272328
0.268655
0.268771
0.840297
0.268720
0.840322
0.840228
0.268771
0.268774
0.268640
0.840300
0.268756
0.268775
0.268607
0.840253
0.268756
0.268680
0.840221
0.840253
0.840296
0.840264
0.840328
0.840319
0.268596
0.840203
0.840180
0.268756
0.268779
0.840169
0.268701
0.268701
0.268756
0.268779
0.268771
0.268779
0.268595
0.268803
0.840328
0.446790
0.840295
0.268701
0.840178
0.840225
0.268740
0.840245
0.840294
0.268810
0.268756
0.840321
0.840223
0.840307
0.268740
0.268774
0.840315
0.268779
0.840205
0.268771
0.840226
0.840163
0.268576
0.268645
0.840170
0.840205
0.840253
0.271073
0.268771
0.268803
0.840289
0.268595
0.840223
0.840258
0.840226
0.840248
0.268713
0.840156
0.268694
0.268783
0.268775
0.268717
0.268771
0.840195
0.840283
0.268771
0.268779
0.268645
0.840211
0.268774
0.268645
0.840205
0.840225
0.268771
0.268783
0.268743
0.268779
0.840253
0.840273
0.840293
0.268771
0.840304
0.268768
0.840205
0.840261
0.840264
0.268607
0.268768
0.840325
0.840304
0.268667
0.840262
0.268619
0.840192
0.268670
0.840254
0.840199
0.268779
0.840263
0.268596
0.268779
0.840239
0.268670
0.840241
0.268576
0.268756
0.840253
0.840249
0.268774
0.840293
0.840258
0.268756
0.268638
0.840205
0.268771
0.840291
0.840283
0.840194
0.809379
0.840310
0.268645
0.840247
0.840302
0.268756
0.268783
0.840258
0.268584
0.840253
0.840204
0.268756
0.268768
0.268756
0.840291
0.268694
0.268775
0.268596
0.840263
0.268584
0.840223
0.268687
0.840304
0.840238
0.840291
0.268640
0.840253
0.268771
0.840209
0.268771
0.840205
0.840193
0.268771
0.268640
0.781193
0.840170
0.268756
0.268771
0.840258
0.268775
0.840175
0.840250
0.840206
0.268803
0.268694
0.840205
0.268584
0.268639
0.840290
0.268783
0.840195
0.840258
0.268771
0.268771
0.268771
0.268777
0.840256
0.268774
0.268779
0.268771
0.840256
0.268720
0.840205
0.840312
0.840212
0.268771
0.268754
0.840315
0.268638
0.268810
0.268754
0.268654
0.268680
0.840326
0.840253
0.268744
0.268701
0.268596
0.800665
0.268774
0.840233
0.840300
0.268803
0.840253
0.840263
0.840315
0.840240
0.840202
0.268581
0.268771
0.268640
0.840270
0.508052
0.268720
0.840300
0.840192
0.840256
0.840293
0.840207
0.268771
0.268667
0.268680
0.268756
0.508052
0.840207
0.840266
0.268771
0.840270
0.268793
0.840170
0.840291
0.268714
0.295132
0.840256
0.840256
0.840267
0.840319
0.268779
0.268775
0.268639
0.840305
0.840296
0.840253
0.840275
0.840205
0.840250
0.268640
0.268595
0.840253
0.268779
0.268701
0.840228
0.840188
0.840273
0.268639
0.268779
0.840245
0.268694
0.840223
0.840205
0.268771
0.840254
0.268581
0.840315
0.840283
0.840205
0.268771
0.840258
0.840253
0.268771
0.268723
0.840227
0.268596
0.840178
0.268694
0.840201
0.840180
0.268679
0.840253
0.268768
0.268719
0.840188
0.840194
0.840170
0.840205
0.840253
0.268810
0.268779
0.268693
0.268584
0.268771
0.268584
0.268640
0.268619
0.268607
0.840156
0.268789
0.840203
0.840206
0.268756
0.268771
0.840203
0.840205
0.840275
0.840170
0.840258
0.840253
0.268771
0.268803
0.268774
0.268771
0.268740
0.268584
0.840242
0.840306
0.268756
0.268740
0.268740
0.840253
0.268607
0.840233
0.840296
0.749545
0.840195
0.840178
0.840206
0.840186
0.268581
0.840202
0.840175
0.840163
0.840213
0.268771
0.840247
0.268774
0.840170
0.840322
0.840295
0.268660
0.268756
0.268756
0.840253
0.268771
0.268660
0.840261
0.840300
0.268660
0.268774
0.840207
0.840202
0.268779
0.268744
0.268803
0.268581
0.268713
0.268639
0.268774
0.268655
0.268595
0.840253
0.840173
0.840195
0.268676
0.840310
0.268717
0.840268
0.268754
0.840305
0.840223
0.268645
0.268774
0.268640
0.840245
0.268775
0.268810
0.840253
0.268709
0.840160
0.268771
0.840202
0.268756
0.268756
0.268771
0.840229
0.840194
0.268756
0.840315
0.840192
0.268756
0.268771
0.840170
0.840170
0.840315
0.840253
0.840263
0.268771
0.840206
0.268771
0.840194
0.840194
0.840254
0.268640
0.840236
0.268810
0.840189
0.268639
0.268756
0.268687
0.268775
0.268701
0.268670
0.840268
0.840257
0.268584
0.268600
0.840331
0.840200
0.840183
0.268803
0.840307
0.268756
0.840259
0.840307
0.268660
0.287944
0.268756
0.268803
0.268680
0.268756
0.268768
0.840307
0.268771
0.268595
0.268581
0.840192
0.268771
0.268670
0.268717
0.268694
0.840253
0.268779
0.840218
0.268639
0.840193
0.840242
0.840263
0.268595
0.840317
0.268754
0.840205
0.268768
0.840197
0.268719
0.840296
0.840170
0.268771
0.268803
0.840326
0.840295
0.840228
0.268789
0.268619
0.840253
0.840203
0.268779
0.840249
0.840218
0.268723
0.840205
0.840315
0.840251
0.268793
0.840220
0.268600
0.840205
0.268581
0.268768
0.268771
0.268771
0.840255
0.268717
0.268655
0.268667
0.268660
0.840251
0.268740
0.840270
0.268660
0.268670
0.840296
0.840253
0.268777
0.268584
0.268754
0.840253
0.840206
0.268771
0.268779
0.508052
0.840247
0.840253
0.268771
0.840221
0.840253
0.840247
0.268771
0.840258
0.268723
0.268607
0.268623
0.268775
0.840203
0.840319
0.268670
0.268771
0.268719
0.840203
0.268595
0.268687
0.268771
0.268803
0.840315
0.840183
0.840205
0.840225
0.268720
0.840328
0.268655
0.268667
0.268756
0.840305
0.840242
0.840330
0.840238
0.840245
0.840295
0.268742
0.840170
0.840297
0.840330
0.268670
0.268645
0.268793
0.840175
0.268642
0.840203
0.840315
0.781193
0.840305
0.840205
0.268667
0.268771
0.268771
0.268803
0.840328
0.268660
0.446790
0.268670
0.800665
0.268793
0.268756
0.781193
0.268779
0.840264
0.268754
0.840254
0.840316
0.840178
0.268647
0.840295
0.268788
0.268771
0.268623
0.268680
0.268810
0.840202
0.268779
0.268775
0.268779
0.840254
0.268623
0.268756
0.446790
0.268756
0.268803
0.840300
0.268822
0.268680
0.840194
0.840250
0.268670
0.268771
0.268670
0.268803
0.840316
0.508052
0.840163
0.268655
0.268774
0.268709
0.819221
0.840305
0.660263
0.268775
0.840205
0.268764
0.840327
0.840279
0.268694
0.268694
0.749545
0.268775
0.840163
0.268771
0.268740
0.268596
0.268719
0.268740
0.268771
0.268709
0.840245
0.268667
0.268788
0.840237
0.268619
0.268788
0.268771
0.268667
0.840250
0.268694
0.268600
0.268803
0.268638
0.268638
0.840239
0.840195
0.268779
0.840250
0.268779
0.840170
0.268645
0.840307
0.841407
0.586425
0.268779
0.268775
0.840200
0.268619
0.268803
0.840202
0.840170
0.268600
0.840315
0.268771
0.840195
0.268771
0.840205
0.268655
0.840304
0.268713
0.268723
0.840226
0.268680
0.268774
0.840253
0.268771
0.840223
0.840253
0.840300
0.268771
0.268771
0.268771
0.840294
0.268771
0.268756
0.268584
0.840192
0.840205
0.840171
0.268600
0.840205
0.840296
0.268771
0.268645
0.840180
0.446790
0.268775
0.840315
0.840205
0.840256
0.268793
0.268774
0.268779
0.840253
0.840253
0.840319
0.840188
0.840246
0.840200
0.268607
0.840193
0.268793
0.840233
0.840205
0.840253
0.268764
0.268810
0.268756
0.268771
0.268694
0.840291
0.268584
0.268744
0.268756
0.840170
0.840206
0.268771
0.840183
0.268581
0.268670
0.840205
0.268803
0.268584
0.268719
0.268680
0.268803
0.268771
0.268640
0.840316
0.268775
0.268756
0.446790
0.268667
0.840305
0.268623
0.268607
0.840300
0.268701
0.268596
0.268756
0.268771
0.268687
0.268771
0.840268
0.268756
0.268584
0.268777
0.840205
0.268694
0.840200
0.268701
0.840228
0.287944
0.840263
0.268783
0.268581
0.268771
0.268642
0.268810
0.840205
0.840253
0.268771
0.268717
0.840250
0.840205
0.268771
0.840253
0.268756
0.840205
0.268684
0.268670
0.268803
0.268771
0.268607
0.268645
0.268771
0.840245
0.840238
0.268654
0.749545
0.840205
0.840210
0.840233
0.268788
0.268771
0.268783
0.268595
0.268756
0.840205
0.840300
0.840203
0.840260
0.840157
0.840205
0.268701
0.268756
0.840270
0.840205
0.268803
0.268709
0.840253
0.268639
0.840300
0.268607
0.268660
0.840210
0.268660
0.840194
0.268756
0.268771
0.268793
0.840195
0.268779
0.840228
0.840224
0.268771
0.840242
0.268756
0.268756
0.840307
0.835749
0.840239
0.268694
0.268687
0.840275
0.840163
0.268645
0.840205
0.840325
0.840205
0.840202
0.268693
0.268694
0.840190
0.268771
0.840279
0.840258
0.268754
0.840307
0.268803
0.268756
0.840252
0.268709
0.840253
0.268584
0.268775
0.840253
0.840315
0.268756
0.840248
0.840201
0.840213
0.840253
0.268754
0.268709
0.268694
0.268694
0.268771
0.268774
0.268774
0.840202
0.268584
0.840253
0.268774
0.268803
0.268775
0.268771
0.840253
0.268645
0.268775
0.268660
0.268584
0.268717
0.268744
0.840485
0.268771
0.268607
0.840205
0.840178
0.840205
0.268779
0.268771
0.840279
0.840253
0.268667
0.840315
0.268610
0.840190
0.268771
0.268619
0.268768
0.840304
0.840205
0.268640
0.268709
0.840212
0.840276
0.268709
0.508052
0.840253
0.268756
0.268771
0.268640
0.268596
0.268670
0.268771
0.840195
0.840270
0.268771
0.268701
0.268576
0.268595
0.840205
0.840182
0.840170
0.268595
0.268756
0.268771
0.840205
0.840254
0.268581
0.268788
0.268771
0.268667
0.840192
0.840233
0.840202
0.268701
0.840205
0.840253
0.840246
0.840293
0.361830
0.840170
0.840276
0.268756
0.840274
0.268779
0.268771
0.268584
0.840192
0.268723
0.268595
0.268670
0.268709
0.840270
0.840300
0.840205
0.840201
0.268771
0.268771
0.268803
0.268720
0.268774
0.749545
0.840258
0.840170
0.268771
0.268803
0.268655
0.840326
0.268694
0.268771
0.268810
0.268756
0.840233
0.268803
0.268694
0.268756
0.268598
0.268771
0.840192
0.840253
0.840228
0.268720
0.840253
0.268740
0.268581
0.268694
0.268667
0.268771
0.268779
0.840279
0.840291
0.268640
0.587716
0.268771
0.840319
0.268793
0.840221
0.268803
0.268670
0.268660
0.268779
0.268660
