0.128372
0.789407
0.474186
0.790082
0.127704
0.127889
0.790226
0.139257
0.127692
0.127656
0.127647
0.127683
0.127889
0.127704
0.790202
0.790206
0.139267
0.127704
0.139254
0.127658
0.127645
0.790857
0.790127
0.127636
0.128372
0.764883
0.139325
0.127643
0.127692
0.129042
0.139257
0.139254
0.790177
0.139254
0.150117
0.276721
0.139257
0.790093
0.139267
0.127692
0.790134
0.790180
0.790059
0.790104
0.790112
0.790130
0.276726
0.150006
0.127647
0.127658
0.790153
0.127677
0.128372
0.139321
0.127704
0.127677
0.127643
0.139263
0.790115
0.790226
0.139254
0.276615
0.127701
0.276681
0.127645
0.127660
0.207949
0.139271
0.790206
0.790223
0.127704
0.315363
0.139263
0.127647
0.790126
0.127647
0.139271
0.276726
0.139257
0.139315
0.127704
0.790206
0.127674
0.276726
0.276726
0.127683
0.315363
0.139254
0.127692
0.139267
0.790206
0.789774
0.139267
0.127611
0.790238
0.276726
0.794678
0.790115
0.790223
0.276726
0.128715
0.276726
0.127704
0.127889
0.208024
0.139326
0.127721
0.150006
0.127715
0.127704
0.139263
0.127645
0.276726
0.139217
0.139271
0.127656
0.139271
0.127704
0.150006
0.127658
0.790127
0.127631
0.127708
0.276699
0.134791
0.139254
0.808881
0.139232
0.127721
0.127704
0.127683
0.789331
0.790083
0.127645
0.127660
0.790096
0.127660
0.139326
0.150117
0.127704
0.790132
0.127658
0.127660
0.315363
0.139271
0.786887
0.139315
0.790857
0.127704
0.276726
0.790857
0.315363
0.139257
0.790125
0.790180
0.207823
0.208024
0.139244
0.790201
0.139271
0.139257
0.790188
0.127704
0.150117
0.127645
0.139263
0.790244
0.790181
0.139267
0.790037
0.127667
0.139257
0.790177
0.276726
0.789331
0.127703
0.127636
0.783582
0.139326
0.790209
0.134791
0.127889
0.789937
0.794409
0.790224
0.790857
0.127670
0.790177
0.208086
0.139257
0.139267
0.139254
0.139267
0.127701
0.790075
0.790857
0.139321
0.789950
0.127721
0.139257
0.139263
0.199670
0.790093
0.127643
0.128372
0.139242
0.276726
0.127704
0.790220
0.128372
0.127692
0.139217
0.139234
0.127721
0.790131
0.127704
0.208086
0.790857
0.276726
0.139329
0.790154
0.139257
0.127692
0.139263
0.139257
0.127721
0.790249
0.790857
0.150006
0.127721
0.127634
0.127656
0.139267
0.127670
0.127721
0.790196
0.790126
0.127631
0.139267
0.790857
0.139254
0.139257
0.127701
0.127704
0.127658
0.139267
0.790182
0.276771
0.127645
0.127658
0.127703
0.127704
0.127704
0.809758
0.139263
0.139254
0.139263
0.127631
0.127703
0.127708
0.128715
0.127631
0.139257
0.790206
0.139242
0.127660
0.139257
0.128372
0.150117
0.790112
0.790167
0.127677
0.127656
0.139254
0.276726
0.139263
0.127645
0.127645
0.790857
0.790138
0.139315
0.139257
0.790134
0.139234
0.139233
0.127721
0.790127
0.789937
0.127611
0.790188
0.276726
0.790244
0.790059
0.790125
0.127721
0.127660
0.127631
0.127670
0.127715
0.127701
0.276726
0.790096
0.127683
0.127647
0.134791
0.127701
0.276799
0.156667
0.127658
0.127704
0.139232
0.139263
0.789737
0.139267
0.127692
0.790149
0.790112
0.127701
0.127692
0.139234
0.139257
0.127643
0.127631
0.139321
0.128372
0.276721
0.127660
0.790125
0.134791
0.127670
0.139267
0.127643
0.790773
0.127677
0.127721
0.127647
0.139254
0.790098
0.790773
0.790223
0.139267
0.127703
0.127704
0.790853
0.127715
0.127703
0.127674
0.276726
0.790105
0.300314
0.127658
0.139257
0.127636
0.127660
0.790083
0.128372
0.790187
0.207943
0.139267
0.276751
0.127704
0.790223
0.790145
0.790205
0.127701
0.139257
0.790239
0.790857
0.276707
0.127645
0.127692
0.139254
0.800628
0.127636
0.134791
0.127647
0.127692
0.276779
0.127660
0.790122
0.790857
0.139325
0.127647
0.790177
0.790160
0.790857
0.207926
0.127643
0.750572
0.127658
0.139267
0.127683
0.276726
0.127692
0.127701
0.127660
0.789527
0.127701
0.127636
0.139263
0.127658
0.790177
0.127677
0.790857
0.139267
0.790223
0.139265
0.127683
0.790164
0.789465
0.127645
0.139271
0.139217
0.127703
0.127636
0.276661
0.139325
0.127656
0.790857
0.139321
0.790177
0.276726
0.127658
0.139233
0.127658
0.127701
0.127656
0.128372
0.127721
0.783582
0.127701
0.139319
0.139263
0.790857
0.790857
0.790857
0.139329
0.127692
0.790125
0.139254
0.127701
0.139257
0.808106
0.139217
0.790064
0.127704
0.139267
0.127704
0.127647
0.129042
0.127611
0.790092
0.128372
0.139263
0.127683
0.790215
0.139244
0.127708
0.127721
0.127889
0.127656
0.790127
0.129042
0.127656
0.127636
0.127670
0.474186
0.128372
0.207943
0.127660
0.127692
0.790196
0.790857
0.127677
0.127658
0.139321
0.789718
0.139244
0.276726
0.139267
0.127658
0.129042
0.790211
0.127670
0.150117
0.208024
0.790143
0.127636
0.790166
0.807588
0.790249
0.789476
0.127704
0.790177
0.127692
0.208086
0.276726
0.139326
0.208086
0.139257
0.127704
0.127643
0.139325
0.790064
0.127701
0.127704
0.139267
0.139254
0.127889
0.790136
0.139263
0.139267
0.139254
0.127658
0.790111
0.790206
0.128715
0.127631
0.790857
0.139242
0.790857
0.790131
0.127670
0.208086
0.127670
0.139263
0.127721
0.127721
0.790119
0.139325
0.127670
0.127658
0.790176
0.127674
0.139267
0.790200
0.139271
0.790119
0.156667
0.790125
0.127704
0.139257
0.139242
0.790125
0.127660
0.276726
0.139257
0.809747
0.139234
0.199670
0.276726
0.140939
0.127701
0.134791
0.790182
0.127631
0.139257
0.790226
0.127647
0.790085
0.127704
0.790178
0.139325
0.790183
0.139234
0.127715
0.139263
0.790216
0.789331
0.139267
0.127656
0.127701
0.207949
0.789344
0.127721
0.276726
0.127658
0.139257
0.207926
0.139257
0.790244
0.127670
0.790222
0.139315
0.790177
0.139326
0.790177
0.127703
0.139217
0.127721
0.128372
0.127692
0.139242
0.128372
0.127658
0.150117
0.127636
0.790206
0.790206
0.139254
0.127683
0.139267
0.789950
0.789846
0.809471
0.787914
0.127692
0.127692
0.127683
0.127660
0.127660
0.127658
0.127708
0.790115
0.128372
0.128372
0.127683
0.127704
0.790187
0.809747
0.207926
0.790105
0.134791
0.789938
0.127721
0.276726
0.139267
0.790102
0.139254
0.790225
0.790106
0.127643
0.790857
0.790177
0.790223
0.127643
0.127683
0.139263
0.127721
0.790083
0.790107
0.790853
0.139217
0.150006
0.127670
0.789769
0.127701
0.798535
0.790105
0.127645
0.139315
0.139267
0.276726
0.139263
0.127703
0.139267
0.790120
0.127704
0.790115
0.139257
0.127658
0.134791
0.139326
0.139254
0.139254
0.127660
0.127643
0.789960
0.790125
0.790115
0.790188
0.790127
0.276726
0.128372
0.208024
0.140939
0.790182
0.790165
0.139233
0.127704
0.276726
0.127647
0.790107
0.139263
0.791313
0.790176
0.794409
0.127611
0.127645
0.139315
0.127660
0.790857
0.790037
0.789994
0.127701
0.128372
0.789927
0.127631
0.764883
0.207943
0.790125
0.129042
0.139247
0.790175
0.127721
0.790857
0.276726
0.156667
0.790857
0.790211
0.790857
0.139257
0.789407
0.790209
0.127634
0.127692
0.474186
0.127658
0.139319
0.276685
0.128715
0.790206
0.790242
0.790221
0.139329
0.661362
0.127631
0.150006
0.790122
0.790201
0.127692
0.140939
0.139263
0.790176
0.127704
0.128372
0.790206
0.139254
0.139263
0.794069
0.127636
0.207823
0.127645
0.790182
0.790198
0.790143
0.127656
0.127647
0.792643
0.139263
0.128372
0.790177
0.127631
0.127636
0.474186
0.127721
0.790177
0.790159
0.686912
0.139257
0.139257
0.127643
0.790177
0.790196
0.790188
0.139267
0.127667
0.809721
0.139263
0.127703
0.809687
0.276726
0.790145
0.127647
0.139263
0.127656
0.809768
0.139263
0.139244
0.790091
0.790119
0.127721
0.139257
0.790177
0.790077
0.790125
0.790180
0.790070
0.127670
0.134791
0.127656
0.789591
0.207823
0.790154
0.127647
0.790177
0.127701
0.139254
0.139254
0.139254
0.139265
0.128715
0.790145
0.139267
0.127704
0.207949
0.127704
0.276740
0.127692
0.134906
0.127701
0.139257
0.139315
0.139271
0.127715
0.276726
0.127660
0.790098
0.277694
0.127643
0.128372
0.790125
0.791313
0.127677
0.127704
0.139267
0.276726
0.127715
0.207926
0.139267
0.790177
0.139267
0.139263
0.139329
0.127670
0.790180
0.208086
0.128372
0.127647
0.789591
0.790857
0.790204
0.127692
0.127643
0.128715
0.789407
0.139217
0.139263
0.139267
0.127692
0.790209
0.139263
0.276726
0.139233
0.139263
0.127636
0.790177
0.127647
0.790144
0.139257
0.139263
0.139254
0.199670
0.790105
0.790102
0.764883
0.790127
0.792142
0.139217
0.134906
0.139319
0.276726
0.276721
0.127721
0.276726
0.127670
0.127721
0.139257
0.139234
0.139257
0.127701
0.759932
0.139267
0.127704
0.139254
0.139267
0.127670
0.790218
0.790262
0.139267
0.276726
0.809745
0.127660
0.127721
0.276726
0.127670
0.139267
0.127708
0.139254
0.127647
0.128372
0.127658
0.127692
0.208024
0.127645
0.790223
0.790853
0.790130
0.127634
0.139254
0.127670
0.276694
0.790277
0.139244
0.127647
0.139233
0.790160
0.139254
0.127703
0.127721
0.150117
0.790266
0.127660
0.139257
0.790857
0.790857
0.789344
0.789357
0.790206
0.139232
0.192215
0.790857
0.127704
0.139257
0.127704
0.127721
0.276661
0.127701
0.790177
0.139326
0.790064
0.276726
0.134791
0.790199
0.127643
0.127704
0.139244
0.134791
0.276726
0.790131
0.127721
0.790177
0.139242
0.208024
0.139319
0.139254
0.127660
0.790857
0.127647
0.139267
0.790169
0.127670
0.207949
0.139244
0.790165
0.790085
0.139254
0.127703
0.789940
0.790169
0.127643
0.127643
0.139267
0.789652
0.789846
0.139263
0.139242
0.127692
0.139244
0.127692
0.127683
0.789560
0.156667
0.790119
0.127721
0.139254
0.276726
0.139232
0.139265
0.139271
0.139257
0.276740
0.128372
0.127636
0.127647
0.127631
0.127677
0.127677
0.790091
0.474186
0.790099
0.127636
0.127667
0.790857
0.127701
0.276726
0.790144
0.139267
0.127631
0.790113
0.789850
0.127701
0.127692
0.127636
0.790205
0.790125
0.127658
0.790129
0.790068
0.127645
0.790076
0.150117
0.139257
0.128715
0.790857
0.127704
0.790149
0.139265
0.127636
0.139267
0.276661
0.127721
0.127704
0.127683
0.790965
0.140939
0.315363
0.139257
0.127721
0.127692
0.127674
0.127721
0.139254
0.276726
0.127643
0.127643
0.139319
0.139233
0.127674
0.127704
0.127721
0.140939
0.139267
0.789476
0.790091
0.134791
0.790226
0.127677
0.127647
0.790206
0.790180
0.127631
0.139233
0.208024
0.790244
0.127677
0.790177
0.794678
0.790223
0.127715
0.127636
0.127636
0.127704
0.790163
0.790177
0.128372
0.794678
0.790083
0.127645
0.127643
0.139267
0.127667
0.790131
0.127645
0.127670
0.127647
0.790125
0.127703
0.790059
0.127721
0.790177
0.127647
0.790220
0.127643
0.800628
0.790857
0.791313
0.139326
0.790059
0.139267
0.139257
0.790134
0.127692
0.790176
0.127721
0.139321
0.139263
0.790857
0.127636
0.139254
0.790201
0.127701
0.773160
0.134906
0.276726
0.474186
0.276721
0.789978
0.790099
0.794678
0.139319
0.139257
0.790857
0.127704
0.139257
0.127692
0.791313
0.789406
0.790239
0.139233
0.127721
0.127703
0.127701
0.789670
0.127703
0.139257
0.809768
0.127692
0.207949
0.790186
0.139254
0.207949
0.127704
0.139325
0.790177
0.139254
0.139242
0.139217
0.139315
0.127670
0.150117
0.139326
0.790180
0.127670
0.790125
0.127715
0.789407
0.790224
0.128372
0.127660
0.128372
0.139271
0.128372
0.127647
0.139263
0.127692
0.134906
0.789357
0.139232
0.127721
0.790857
0.139254
0.790125
0.276726
0.139263
0.790085
0.139244
0.790177
0.128372
0.139254
0.790187
0.276741
0.790077
0.127631
0.127660
0.139263
0.139263
0.139257
0.790125
0.207823
0.790062
0.790942
0.208086
0.139254
0.139263
0.127667
0.127701
0.127683
0.127889
0.127645
0.790075
0.790857
0.790262
0.127611
0.127660
0.311588
0.127658
0.790857
0.139244
0.139263
0.139257
0.139254
0.790249
0.790249
0.790176
0.790853
0.790137
0.139254
0.139257
0.150117
0.192215
0.276726
0.139263
0.139257
0.790180
0.127701
0.796543
0.139257
0.207926
0.127692
0.139254
0.790167
0.139329
0.790062
0.790177
0.790857
0.139242
0.790198
0.127656
0.790167
0.276666
0.127660
0.207943
0.790262
0.127704
0.139321
0.128372
0.208024
0.139265
0.127647
0.139257
0.127683
0.790070
0.139325
0.790100
0.127703
0.127683
0.790188
0.790177
0.789435
0.790177
0.794678
0.790062
0.127670
0.127703
0.276733
0.207823
0.139267
0.127708
0.139257
0.790146
0.127660
0.790255
0.139263
0.139232
0.134791
0.127674
0.139254
0.139247
0.127647
0.809746
0.790206
0.127660
0.276647
0.207949
0.139271
0.150006
0.276638
0.790417
0.127667
0.139263
0.127677
0.127889
0.139234
0.139254
0.127704
0.139254
0.139257
0.127704
0.139267
0.127658
0.790205
0.276726
0.790179
0.139233
0.139217
0.127721
0.790195
0.790177
0.139319
0.127645
0.276726
0.127670
0.789867
0.139267
0.127660
0.127647
0.790132
0.790132
0.139265
0.276726
0.127715
0.809746
0.127645
0.127683
0.790177
0.809750
0.127631
0.790176
0.127670
0.127683
0.139315
0.127658
0.128715
0.127658
0.139257
0.789594
0.127660
0.790098
0.139319
0.790857
0.801192
0.127611
0.139234
0.150006
0.789978
0.764883
0.208086
0.127889
0.127683
0.139267
0.764883
0.139263
0.127721
0.127703
0.127704
0.139265
0.128715
0.139244
0.139265
0.790209
0.127701
0.128715
0.127670
0.127677
0.127721
0.759932
0.127647
0.139319
0.140939
0.794678
0.789878
0.139257
0.127704
0.790177
0.139232
0.139319
0.127704
0.790117
0.139254
0.276726
0.127704
0.789485
0.207943
0.128372
0.790105
0.139244
0.127701
0.139254
0.127658
0.790857
0.127721
0.140939
0.127704
0.276726
0.139247
0.127692
0.127692
0.139254
0.789955
0.208086
0.139263
0.139267
0.790238
0.790223
0.790099
0.790222
0.759932
0.127647
0.127701
0.134791
0.127701
0.790149
0.127634
0.790125
0.139257
0.139257
0.139315
0.139233
0.139267
0.127611
0.127704
0.150006
0.790166
0.208024
0.192215
0.790183
0.127701
0.790145
0.686912
0.139271
0.276726
0.208024
0.139263
0.127704
0.139234
0.686912
0.790122
0.127660
0.790857
0.139271
0.139263
0.127704
0.276682
0.139247
0.127647
0.127643
0.199670
0.127660
0.127692
0.139254
0.208024
0.790857
0.127721
0.127647
0.139254
0.127611
0.139329
0.790199
0.502251
0.790857
0.790857
0.790177
0.127631
0.127658
0.128372
0.127889
0.139257
0.127658
0.139267
0.150006
0.276647
0.134791
0.276711
0.764883
0.127692
0.127683
0.276726
0.300314
0.127721
0.127647
0.139254
0.139254
0.134791
0.127677
0.790180
0.790105
0.127656
0.790100
0.790136
0.139233
0.207943
0.790177
0.139234
0.127704
0.207823
0.790177
0.134791
0.127634
0.207823
0.786887
0.139271
0.139271
0.140939
0.139217
0.790111
0.127611
0.790131
0.790125
0.790092
0.127721
0.127660
0.128372
0.127647
0.139271
0.139321
0.789769
0.139265
0.139321
0.474186
0.139233
0.139257
0.127670
0.790122
0.276726
0.127631
0.127704
0.139319
0.790186
0.139254
0.127631
0.127656
0.127670
0.790183
0.127656
0.790857
0.127715
0.139326
0.127670
0.127670
0.139267
0.276783
0.139265
0.790085
0.790062
0.790177
0.139321
0.128372
0.139325
0.128372
0.790177
0.790177
0.276726
0.790076
0.127643
0.127670
0.139271
0.276653
0.790206
0.139244
0.127692
0.139315
0.127677
0.276759
0.276726
0.790105
0.790102
0.790131
0.789800
0.139263
0.139257
0.790144
0.686912
0.207943
0.790857
0.790223
0.790096
0.127692
0.127701
0.139271
0.139254
0.127631
0.790059
0.127692
0.127674
0.139234
0.474186
0.276726
0.127692
0.790262
0.134791
0.139257
0.140939
0.127703
0.127703
0.790178
0.790177
0.208086
0.139254
0.127647
0.127670
0.790153
0.790180
0.127704
0.139257
0.790223
0.139244
0.276726
0.127645
0.276726
0.793575
0.790201
0.127692
0.790176
0.127704
0.127670
0.790180
0.790179
0.764883
0.790857
0.790150
0.139257
0.790166
0.790857
0.127721
0.128372
0.127674
0.127660
0.139263
0.127721
0.139232
0.276726
0.139247
0.139267
0.276701
0.789608
0.139254
0.139254
0.127658
0.127643
0.127611
0.208024
0.192215
0.139254
0.276726
0.150117
0.790107
0.127701
0.127658
0.127656
0.192215
0.127645
0.790125
0.139257
0.127670
0.139267
0.790133
0.139254
0.790105
0.139257
0.790075
0.764883
0.128372
0.127683
0.139271
0.139315
0.127647
0.790169
0.139267
0.139326
0.139257
0.127889
0.474186
0.139254
0.127645
0.127647
0.127704
0.134906
0.276726
0.139232
0.783582
0.790201
0.139321
0.127643
0.127647
0.790177
0.794409
0.790241
0.139257
0.127692
0.790857
0.790177
0.790177
0.790228
0.790153
0.207926
0.127647
0.139263
0.276726
0.127721
0.790223
0.127647
0.127647
0.790853
0.790062
0.139257
0.790177
0.127701
0.139267
0.127643
0.127647
0.127721
0.127645
0.139263
0.139267
0.790177
0.199670
0.127708
0.139254
0.134906
0.139244
0.127704
0.790196
0.276789
0.139267
0.127692
0.790064
0.127660
0.139267
0.790857
0.139257
0.139267
0.790189
0.127670
0.139254
0.790119
0.127683
0.139325
0.139265
0.790122
0.127611
0.276605
0.139234
0.276726
0.790228
0.127656
0.127677
0.139257
0.127704
0.139265
0.790180
0.127611
0.790144
0.128372
0.276741
0.790857
0.139265
0.809733
0.276726
0.790177
0.127701
0.276726
0.127889
0.790207
0.127708
0.127660
0.127703
0.134906
0.128372
0.127647
0.139315
0.789799
0.127704
0.127658
0.790130
0.127692
0.139232
0.127645
0.127611
0.790177
0.790059
0.127704
0.127721
0.790176
0.139265
0.139257
0.790206
0.127611
0.790857
0.791313
0.139234
0.139263
0.790225
0.127721
0.790131
0.139263
0.276805
0.790166
0.139315
0.139254
0.127677
0.790857
0.789769
0.790189
0.127715
0.156667
0.128372
0.127660
0.127721
0.192215
0.127704
0.809749
0.790857
0.127692
0.127704
0.139257
0.790857
0.139326
0.127647
0.127889
0.127701
0.127656
0.127674
0.139257
0.127611
0.127708
0.790083
0.790223
0.208024
0.790092
0.127670
0.276726
0.790147
0.139257
0.139247
0.127721
0.127701
0.790112
0.790206
0.127704
0.790085
0.276726
0.790154
0.783582
0.127692
0.790417
0.127611
0.139254
0.139254
0.139233
0.129042
0.207943
0.127721
0.127721
0.139257
0.790177
0.127647
0.127703
0.790145
0.790068
0.127704
0.134791
0.809747
0.790127
0.139265
0.127704
0.127660
0.611464
0.127670
0.790773
0.150006
0.139242
0.790062
0.139263
0.127677
0.139232
0.139254
0.276726
0.139254
0.790196
0.139315
0.790221
0.127658
0.790064
0.790177
0.139244
0.127647
0.127704
0.127721
0.127692
0.127704
0.790099
0.790224
0.139321
0.790105
0.139326
0.127631
0.128372
0.127692
0.127634
0.139254
0.790085
0.127658
0.790177
0.127670
0.139271
0.127704
0.139232
0.276799
0.127645
0.798535
0.127683
0.790207
0.207943
0.139257
0.789641
0.139254
0.790125
0.790102
0.790177
0.127704
0.134791
0.276726
0.139254
0.127704
0.139325
0.139321
0.139263
0.276726
0.128372
0.128372
0.789485
0.276726
0.789684
0.199670
0.139254
0.790177
0.790092
0.127674
0.127674
0.790099
0.208086
0.790206
0.127658
0.139329
0.794069
0.127701
0.129042
0.276804
0.127660
0.139263
0.139254
0.127660
0.127658
0.207949
0.127647
0.127708
0.127645
0.792751
0.127647
0.127703
0.139263
0.127631
0.790092
0.127660
0.139263
0.790077
0.127704
0.139242
0.139254
0.790149
0.192215
0.127660
0.127704
0.127721
0.139254
0.790857
0.127611
0.128372
0.792751
0.127670
0.790177
0.139244
0.208024
0.139234
0.139267
0.127721
0.127645
0.208024
0.127683
0.139217
0.127636
0.127643
0.207823
0.139265
0.127645
0.127701
0.139265
0.139254
0.127721
0.790857
0.139315
0.127692
0.790177
0.127701
0.139232
0.127701
0.139267
0.790177
0.127647
0.150006
0.790127
0.127704
0.139329
0.127708
0.208024
0.127611
0.139254
0.139257
0.790096
0.127670
0.139242
0.790223
0.127670
0.127647
0.139233
0.790177
0.127658
0.139254
0.790119
0.276726
0.139265
0.790040
0.139271
0.139257
0.128372
0.127704
0.276726
0.208024
0.127704
0.139233
0.128372
0.127692
0.790083
0.139263
0.127692
0.790098
0.127636
0.127611
0.790224
0.150006
0.790177
0.127660
0.807588
0.128372
0.139217
0.276682
0.139257
0.790857
0.139234
0.276726
0.127647
0.134791
0.139244
0.127631
0.128372
0.139232
0.759932
0.127643
0.276759
0.139254
0.790166
0.790077
0.207926
0.790075
0.139267
0.127704
0.127708
0.127645
0.790068
0.139254
0.790206
0.139254
0.127692
0.750572
0.139267
0.207949
0.139267
0.790129
0.790173
0.127704
0.139315
0.127683
0.139267
0.127703
0.790965
0.276726
0.790177
0.790091
0.134791
0.127683
0.792142
0.127704
0.127701
0.139319
0.127660
0.750572
0.127701
0.127660
0.790138
0.199670
0.792751
0.790183
0.127701
0.790068
0.139326
0.807356
0.139254
0.127721
0.790145
0.790091
0.127636
0.790192
0.139265
0.790177
0.809758
0.140939
0.790177
0.127704
0.127692
0.790209
0.127631
0.790145
0.127660
0.790200
0.127658
0.128372
0.127708
0.127704
0.790857
0.156667
0.276726
0.789774
0.790223
0.790226
0.127670
0.156667
0.127703
0.794678
0.134791
0.127660
0.127721
0.790183
0.127658
0.127721
0.139254
0.127692
0.127692
0.139254
0.139267
0.139271
0.790064
0.127660
0.789721
0.139233
0.809797
0.127692
0.127656
0.139263
0.790249
0.139242
0.790204
0.139265
0.276726
0.127660
0.139254
0.208086
0.139267
0.790106
0.139315
0.127704
0.127715
0.790115
0.139263
0.790177
0.127611
0.127643
0.789435
0.790105
0.127645
0.276726
0.127677
0.139265
0.790216
0.127701
0.790183
0.139257
0.790220
0.276745
0.790857
0.790223
0.139257
0.129042
0.139263
0.790177
0.127658
0.139257
0.127704
0.790112
0.150117
0.139267
0.139257
0.790196
0.790138
0.276726
0.139257
0.127703
0.790098
0.127704
0.790169
0.127704
0.127660
0.686912
0.127660
0.790116
0.139254
0.139263
0.150117
0.790199
0.790204
0.790153
0.790857
0.139217
0.127670
0.790125
0.796543
0.127660
0.139257
0.790179
0.127889
0.790180
0.128372
0.192215
0.139254
0.127631
0.127645
0.276726
0.139254
0.790857
0.791313
0.315363
0.127692
0.790177
0.207823
0.789959
0.127647
0.139329
0.790183
0.150006
0.127692
0.127643
0.790076
0.139244
0.807356
0.790149
0.139234
0.128715
0.127692
0.139326
0.127645
0.127667
0.127703
0.127704
0.127692
0.276726
0.127660
0.127704
0.790169
0.474186
0.139257
0.139329
0.139254
0.139257
0.139321
0.139263
0.127611
0.764883
0.139254
0.127670
0.127701
0.134906
0.794678
0.127683
0.139271
0.789407
0.139267
0.139263
0.790223
0.127721
0.790204
0.276726
0.139257
0.127692
0.128715
0.139257
0.139232
0.127692
0.139263
0.127674
0.128372
0.127677
0.790177
0.140939
0.789846
0.139325
0.139263
0.276711
0.127670
0.127692
0.276726
0.127670
0.127658
0.790127
0.139233
0.139267
0.207926
0.139257
0.139267
0.300314
0.759932
0.128715
0.790857
0.790206
0.790106
0.276653
0.127683
0.208086
0.128372
0.127670
0.127660
0.276685
0.139247
0.127647
0.790122
0.139263
0.790857
0.790101
0.276726
0.139319
0.127656
0.783582
0.792142
0.139267
0.276726
0.790180
0.790177
0.127703
0.139257
0.790857
0.276666
0.790196
0.192215
0.790857
0.127670
0.127692
0.127660
0.127692
0.127692
0.790131
0.127645
0.790068
0.127660
0.127721
0.139254
0.790857
0.207823
0.139244
0.127670
0.127708
0.809721
0.134791
0.127647
0.127670
0.127670
0.790068
0.790100
0.127658
0.127670
0.128372
0.790097
0.127660
0.127658
0.127704
0.790115
0.127660
0.790857
0.790149
0.128372
0.128372
0.127708
0.127692
0.127704
0.207943
0.139254
0.790238
0.759932
0.139254
0.127721
0.139263
0.127701
0.127660
0.128715
0.127636
0.139267
0.139234
0.139267
0.783582
0.790177
0.764883
0.790857
0.127677
0.127631
0.139267
0.790209
0.127643
0.790213
0.127701
0.127647
0.127660
0.790085
0.127636
0.127683
0.139267
0.139267
0.790166
0.139242
0.790177
0.129042
0.789967
0.139267
0.139257
0.139265
0.127658
0.790244
0.128372
0.139263
0.790075
0.790100
0.276721
0.127645
0.790144
0.276726
0.127631
0.790857
0.127692
0.686912
0.127634
0.790146
0.790119
0.139267
0.790139
0.139267
0.127660
0.127701
0.790209
0.127647
0.276733
0.790262
0.686912
0.127692
0.139254
0.790857
0.139257
0.276726
0.276726
0.790224
0.127704
0.127660
0.790137
0.276726
0.790122
0.127704
0.127701
0.139263
0.127704
0.139254
0.139234
0.790077
0.790177
0.764883
0.790206
0.790136
0.276726
0.276726
0.139244
0.139254
0.790857
0.127683
0.790226
0.139257
0.790169
0.139257
0.276643
0.809088
0.789476
0.139257
0.790115
0.790151
0.139267
0.276726
0.127721
0.790857
0.127670
0.703052
0.474186
0.790137
0.790105
0.127683
0.139326
0.127643
0.127721
0.128372
0.127708
0.139263
0.139265
0.127692
0.139257
0.139257
0.134791
0.139319
0.127701
0.790083
0.127677
0.127647
0.790126
0.790177
0.790198
0.790177
0.139254
0.127692
0.127701
0.199670
0.127692
0.276726
0.127660
0.127647
0.139263
0.127611
0.127701
0.127704
0.139257
0.139321
0.127647
0.809746
0.127701
0.207926
0.127660
0.127692
0.790238
0.764883
0.139257
0.127670
0.139263
0.790131
0.139263
0.139257
0.794678
0.127643
0.128372
0.127670
0.127704
0.790171
0.276707
0.208024
0.139263
0.199670
0.139242
0.139267
0.127704
0.139257
0.139326
0.127721
0.790225
0.127704
0.790125
0.139267
0.790857
0.127647
0.786887
0.139325
0.790201
0.139265
0.789938
0.139263
0.790076
0.790177
0.127647
0.128372
0.790177
0.790183
0.139267
0.140939
0.276731
0.139329
0.789937
0.127660
0.276726
0.790857
0.790177
0.276726
0.128372
0.790205
0.276726
0.127704
0.502251
0.139271
0.207943
0.127647
0.127645
0.139319
0.208024
0.139319
0.790188
0.127643
0.139267
0.208024
0.127704
0.790857
0.139257
0.139319
0.139267
0.790857
0.127692
0.139267
0.139254
0.127704
0.139267
0.127658
0.276726
0.809743
0.139263
0.139247
0.790177
0.139321
0.139321
0.127721
0.790125
0.139267
0.127658
0.127645
0.790125
0.127647
0.276726
0.139257
0.139234
0.790182
0.127670
0.790177
0.127703
0.276934
0.790857
0.792751
0.127692
0.790131
0.128372
0.127677
0.150006
0.127704
0.127889
0.127677
0.127708
0.790119
0.208024
0.790857
0.156667
0.790056
0.790125
0.127715
0.276741
0.703052
0.139263
0.790177
0.127692
0.790177
0.789483
0.790064
0.790176
0.127660
0.127704
0.139257
0.789900
0.790176
0.790130
0.139267
0.783582
0.127721
0.139254
0.127631
0.140939
0.790177
0.127692
0.139267
0.127704
0.790059
0.790116
0.789940
0.276726
0.276726
0.139271
0.790166
0.127683
0.199670
0.127660
0.127631
0.790223
0.127721
0.139267
0.790062
0.790177
0.127704
0.790177
0.127647
0.276726
0.127683
0.139254
0.139263
0.139254
0.127658
0.139263
0.127701
0.139265
0.809770
0.809745
0.207949
0.790223
0.127704
0.139263
0.127660
0.790131
0.139263
0.139257
0.139254
0.790077
0.276725
0.127721
0.789608
0.276726
0.139217
0.207926
0.790218
0.127667
0.127704
0.139233
0.127658
0.139254
0.199670
0.150117
0.790187
0.127670
0.134791
0.807588
0.139247
0.127692
0.139233
0.139267
0.139217
0.790206
0.794678
0.139319
0.127721
0.139267
0.300314
0.276726
0.127660
0.127889
0.150006
0.139265
0.139257
0.790091
0.127631
0.127704
0.790122
0.127643
0.276726
0.127658
0.790098
0.790211
0.790201
0.127704
0.139254
0.127701
0.127708
0.790857
0.789960
0.127683
0.790125
0.207823
0.139267
0.139242
0.790102
0.790091
0.127647
0.276726
0.127692
0.127667
0.139265
0.139267
0.276682
0.790857
0.783582
0.127677
0.140939
0.790857
0.127660
0.790196
0.790083
0.127704
0.127645
0.276726
0.139232
0.790177
0.127647
0.790083
0.139254
0.127721
0.127667
0.127704
0.127658
0.794678
0.150117
0.276711
0.276726
0.139326
0.139267
0.127658
0.139267
0.790221
0.790853
0.127645
0.790857
0.790857
0.139254
0.790105
0.127647
0.139233
0.127670
0.139267
0.789591
0.276786
0.139257
0.790125
0.139242
0.139254
0.127634
0.139267
0.790857
0.790262
0.127704
0.808106
0.139247
0.790196
0.139233
0.139319
0.139244
0.790102
0.790111
0.139315
0.790177
0.790115
0.127701
0.139257
0.789927
0.790130
0.127704
0.127634
0.139257
0.192215
0.790105
0.139257
0.790220
0.128372
0.790857
0.276733
0.127677
0.127660
0.790206
0.127647
0.474186
0.127631
0.127660
0.139242
0.790127
0.139257
0.127634
0.789331
0.789561
0.790182
0.790102
0.790177
0.315363
0.127643
0.139217
0.127677
0.792142
0.139242
0.139247
0.139267
0.134791
0.276799
0.128715
0.139254
0.127701
0.127658
0.127692
0.139244
0.208086
0.790177
0.139233
0.139257
0.127645
0.127721
0.127704
0.139265
0.789483
0.127660
0.790125
0.192215
0.127636
0.790177
0.150006
0.139257
0.127647
0.127660
0.790857
0.790077
0.127701
0.139257
0.127708
0.139254
0.139263
0.139242
0.127889
0.790125
0.790857
0.139217
0.139234
0.790213
0.139244
0.790029
0.790146
0.276726
0.127721
0.127647
0.127645
0.474186
0.139234
0.139244
0.127636
0.127703
0.208086
0.139233
0.127692
0.790177
0.127701
0.127889
0.128372
0.139265
0.790152
0.127660
0.790075
0.128372
0.139257
0.139315
0.139315
0.790196
0.127708
0.150117
0.127677
0.792142
0.276726
0.790096
0.127701
0.764883
0.790221
0.790144
0.790177
0.789366
0.127703
0.474186
0.127645
0.139254
0.127692
0.139254
0.127647
0.127677
0.139257
0.127704
0.790206
0.127704
0.790158
0.790115
0.127660
0.789959
0.134791
0.139265
0.207823
0.129042
0.127708
0.127667
0.127611
0.127643
0.127701
0.127677
0.127647
0.208086
0.127670
0.129042
0.139267
0.127660
0.790857
0.139242
0.139265
0.790106
0.809696
0.786887
0.139267
0.790857
0.127677
0.192215
0.139257
0.139257
0.127704
0.127704
0.128372
0.790209
0.129042
0.127889
0.790223
0.789940
0.139326
0.790122
0.128372
0.790857
0.127660
0.139267
0.139325
0.790177
0.127636
0.790223
0.790176
0.127656
0.783582
0.127660
0.139263
0.127701
0.139267
0.127692
0.207943
0.139254
0.790177
0.127660
0.789774
0.139267
0.791313
0.207823
0.139321
0.139257
0.790122
0.789978
0.790773
0.790222
0.790091
0.139257
0.139263
0.127701
0.790177
0.790178
0.790064
0.790135
0.127634
0.127660
0.127708
0.134791
0.790115
0.276726
0.208024
0.127670
0.192215
0.127660
0.139267
0.127656
0.192215
0.139242
0.140939
0.127889
0.139263
0.127704
0.127660
0.127674
0.139244
0.139267
0.127611
0.790857
0.790206
0.276726
0.790857
0.139321
0.789846
0.127656
0.790857
0.127701
0.139254
0.139257
0.790857
0.790177
0.139247
0.127656
0.790204
0.134791
0.276726
0.208024
0.139257
0.127704
0.127721
0.127704
0.139257
0.127704
0.127889
0.139257
0.127721
0.790857
0.128372
0.276695
0.790177
0.793575
0.127658
0.139234
0.139326
0.276726
0.127721
0.207943
0.127701
0.809745
0.139271
0.139263
0.128372
0.276726
0.208086
0.127658
0.139263
0.139257
0.790206
0.790117
0.127703
0.128372
0.127704
0.127636
0.127692
0.790040
0.127656
0.790183
0.128372
0.128372
0.809758
0.128372
0.789366
0.127677
0.127703
0.276726
0.790126
0.139267
0.139244
0.139326
0.790102
0.790149
0.808106
0.127667
0.127704
0.127704
0.474186
0.790857
0.127721
0.790112
0.127704
0.276726
0.790126
0.276726
0.127674
0.127701
0.139232
0.276726
0.127704
0.127721
0.207943
0.139244
0.139329
0.127670
0.127704
0.139254
0.139257
0.139271
0.790857
0.127674
0.790857
0.790167
0.790125
0.127701
0.790196
0.127703
0.128372
0.127647
0.207943
0.139257
0.790158
0.790206
0.794069
0.790857
0.792751
0.276726
0.127677
0.139234
0.127721
0.127704
0.127636
0.139242
0.139254
0.127704
0.789850
0.790075
0.790191
0.192215
0.127631
0.127660
0.207949
0.276733
0.127889
0.207926
0.790187
0.139315
0.127721
0.789799
0.790180
0.127704
0.127656
0.790138
0.127708
0.790187
0.127611
0.127647
0.127701
0.127708
0.127692
0.139265
0.790187
0.789938
0.139263
0.789967
0.790238
0.789718
0.276726
0.127683
0.139254
0.127647
0.276726
0.207926
0.127677
0.790206
0.789435
0.127647
0.127692
0.139257
0.139326
0.790075
0.127660
0.139257
0.790165
0.276726
0.790165
0.127643
0.127692
0.139267
0.790208
0.127636
0.790076
0.789950
0.790249
0.127701
0.139271
0.790857
0.790214
0.276661
0.128372
0.127643
0.127708
0.686912
0.150117
0.276682
0.790202
0.790177
0.127670
0.139234
0.127658
0.139257
0.127692
0.139254
0.790131
0.127701
0.127692
0.127647
0.139242
0.809687
0.789406
0.127889
0.127703
0.127660
0.139326
0.199670
0.127704
0.207943
0.139254
0.790183
0.156667
0.127647
0.750572
0.790857
0.790125
0.139254
0.139254
0.790091
0.790180
0.809764
0.207943
0.790857
0.128372
0.139257
0.139263
0.127704
0.790125
0.276783
0.150117
0.790211
0.127647
0.139263
0.127701
0.790215
0.789927
0.127721
0.127658
0.790037
0.127692
0.790160
0.139247
0.208024
0.790857
0.127667
0.790070
0.790180
0.790168
0.127704
0.790083
0.790107
0.790165
0.208024
0.790176
0.790125
0.276726
0.790037
0.139234
0.128372
0.150006
0.276725
0.276726
0.127658
0.139315
0.127660
0.139321
0.129042
0.127703
0.127660
0.127645
0.790223
0.127660
0.139257
0.127647
0.127636
0.127704
0.127658
0.127701
0.139244
0.276643
0.686912
0.127660
0.139234
0.809721
0.139325
0.192215
0.127701
0.127636
0.276726
0.139234
0.127692
0.127647
0.790222
0.156667
0.809750
0.127670
0.276653
0.207926
0.127670
0.790131
0.127658
0.790147
0.127660
0.127692
0.127660
0.139267
0.207949
0.139257
0.207949
0.129042
0.139271
0.127703
0.790083
0.127656
0.790125
0.128372
0.127703
0.790417
0.156667
0.790223
0.207943
0.127647
0.127704
0.790106
0.139263
0.127692
0.150006
0.790198
0.139263
0.139263
0.139233
0.127611
0.139257
0.127704
0.139257
0.790266
0.139265
0.790206
0.150006
0.790186
0.789560
0.127674
0.139267
0.127611
0.790857
0.312732
0.790206
0.474186
0.789591
0.127647
0.140939
0.276726
0.127670
0.139233
0.127692
0.127670
0.139271
0.199670
0.127715
0.127703
0.127658
0.207943
0.139257
0.139244
0.139325
0.790115
0.139263
0.139267
0.790177
0.790223
0.127660
0.139257
0.127704
0.139257
0.199670
0.139321
0.127645
0.276711
0.127701
0.128372
0.127670
0.790857
0.276725
0.139321
0.128372
0.127704
0.790225
0.139254
0.276643
0.790176
0.794409
0.139326
0.139254
0.127704
0.139265
0.809750
0.127683
0.128372
0.127704
0.127667
0.790176
0.207823
0.790083
0.790062
0.128372
0.127636
0.276726
0.199670
0.127656
0.127704
0.809797
0.790167
0.276790
0.790177
0.792643
0.139267
0.790177
0.276682
0.139315
0.790238
0.127701
0.127647
0.127660
0.276676
0.127660
0.139254
0.127645
0.790857
0.139315
0.140939
0.139263
0.789483
0.790125
0.207949
0.809088
0.150117
0.127721
0.790064
0.809471
0.140939
0.807914
0.139233
0.127645
0.127704
0.127645
0.139267
0.790177
0.139257
0.127708
0.127645
0.127704
0.315363
0.128372
0.790101
0.789944
0.790112
0.127704
0.127645
0.128372
0.790197
0.139321
0.127704
0.127645
0.139244
0.127645
0.128715
0.127670
0.809696
0.139254
0.127704
0.790221
0.790132
0.128715
0.127703
0.134791
0.127660
0.139233
0.139257
0.129042
0.790857
0.128372
0.276740
0.127701
0.127656
0.276726
0.207926
0.139271
0.127692
0.127701
0.127703
0.127889
0.127692
0.127647
0.127701
0.139257
0.127683
0.127643
0.276783
0.139267
0.790857
0.139217
0.790122
0.276726
0.790168
0.809696
0.790145
0.139257
0.127660
0.809696
0.127683
0.127708
0.790130
0.139263
0.790119
0.208086
0.139271
0.127670
0.127660
0.127704
0.790853
0.127704
0.474186
0.139263
0.276726
0.790177
0.790180
0.127645
0.127704
0.127670
0.127631
0.127647
0.127611
0.127636
0.150117
0.134906
0.139257
0.139263
0.127636
0.789886
0.790177
0.276751
0.809768
0.139263
0.139232
0.790857
0.127656
0.139271
0.127704
0.127670
0.790262
0.276726
0.276726
0.139234
0.276668
0.315363
0.127611
0.127692
0.127660
0.276804
0.139315
0.127683
0.276726
0.790102
0.139265
0.127658
0.127683
0.127692
0.790206
0.134791
0.127721
0.790127
0.790097
0.790029
0.276726
0.208024
0.150117
0.150006
0.790131
0.790177
0.127670
0.134791
0.139244
0.790105
0.127658
0.139326
0.790153
0.139267
0.139326
0.127658
0.127631
0.127660
0.790206
0.127658
0.790145
0.127660
0.276804
0.127658
0.276789
0.127636
0.127667
0.127721
0.127660
0.127701
0.150006
0.276726
0.127658
0.790151
0.129042
0.789483
0.276726
0.127692
0.139257
0.127721
0.276726
0.790126
0.139315
0.127636
0.127643
0.127708
0.790177
0.127889
0.127636
0.127658
0.127631
0.127704
0.790214
0.127721
0.276726
0.127721
0.790211
0.127647
0.127611
0.127701
0.134791
0.139329
0.276726
0.127658
0.139257
0.809758
0.127647
0.790244
0.127656
0.127658
0.139263
0.139265
0.127643
0.127703
0.127670
0.790130
0.790106
0.790077
0.127701
0.127660
0.790206
0.139329
0.128372
0.127704
0.139257
0.139326
0.127889
0.127701
0.139242
0.792751
0.134791
0.127643
0.127708
0.127647
0.790198
0.139267
0.150117
0.139257
0.790064
0.139244
0.790177
0.139242
0.127677
0.789718
0.127660
0.127674
0.783582
0.127704
0.790146
0.139257
0.207943
0.276726
0.276751
0.150117
0.273108
0.139257
0.127660
0.127721
0.127703
0.127708
0.127721
0.139254
0.139263
0.139267
0.134906
0.127611
0.790095
0.790206
0.790196
0.140939
0.127660
0.128372
0.790167
0.139254
0.127692
0.790857
0.807914
0.790206
0.134791
0.790182
0.790096
0.276726
0.790173
0.276726
0.790241
0.790857
0.790209
0.790127
0.139321
0.127634
0.127647
0.127660
0.139267
0.790249
0.127703
0.127701
0.127660
0.139265
0.276682
0.127704
0.139257
0.127704
0.139257
0.790106
0.127692
0.789799
0.127677
0.276799
0.139267
0.208024
0.139257
0.127704
0.790107
0.139234
0.139265
0.276726
0.127703
0.790176
0.790857
0.139244
0.139257
0.127704
0.790092
0.127645
0.127660
0.139244
0.139263
0.139267
0.800628
0.790262
0.127701
0.790131
0.139254
0.796543
0.128372
0.790125
0.790206
0.127647
0.790134
0.127656
0.127670
0.139242
0.127692
0.127658
0.127634
0.790097
0.139325
0.139254
0.127660
0.207823
0.127708
0.139254
0.127656
0.128372
0.207926
0.128372
0.139326
0.790857
0.127704
0.208086
0.139247
0.127703
0.139263
0.139329
0.139263
0.127631
0.127683
0.127701
0.139263
0.790132
0.809797
0.139257
0.127721
0.127631
0.790144
0.790099
0.127636
0.790857
0.127660
0.127704
0.139326
0.127701
0.809781
0.790183
0.139271
0.127701
0.127647
0.127703
0.127703
0.139233
0.127658
0.207823
0.127660
0.127631
0.140939
0.127658
0.127704
0.790746
0.139257
0.127721
0.127683
0.127683
0.127704
0.276643
0.127670
0.127636
0.139267
0.127643
0.276771
0.127721
0.474186
0.127683
0.127703
0.790169
0.156667
0.139257
0.764883
0.790146
0.790965
0.139242
0.139325
0.127704
0.790857
0.127703
0.790177
0.127658
0.127645
0.276728
0.139271
0.127670
0.790180
0.129042
0.127660
0.139257
0.127703
0.127658
0.127721
0.790106
0.127721
0.800628
0.199670
0.127703
0.139263
0.790857
0.127704
0.128715
0.139267
0.139267
0.139257
0.150006
0.790125
0.127647
0.139242
0.127631
0.139271
0.790853
0.127645
0.207943
0.790206
0.790029
0.139242
0.127658
0.790163
0.790205
0.276726
0.790857
0.127658
0.790125
0.139254
0.139267
0.790137
0.127704
0.127660
0.139257
0.128372
0.127704
0.127643
0.790857
0.127660
0.127721
0.207949
0.127692
0.790191
0.139325
0.127721
0.790098
0.127677
0.127704
0.127683
0.150006
0.127701
0.790115
0.128715
0.139234
0.790228
0.127660
0.127647
0.127647
0.127647
0.139263
0.127660
0.790201
0.127667
0.127656
0.809698
0.139254
0.139321
0.789497
0.790188
0.127683
0.127670
0.790064
0.790125
0.127647
0.127683
0.790222
0.127701
0.276726
0.127636
0.208024
0.790179
0.790102
0.134791
0.127704
0.790125
0.790100
0.790125
0.127704
0.276664
0.150006
0.127656
0.134906
0.790125
0.134906
0.139267
0.127889
0.790177
0.790122
0.276726
0.807356
0.127703
0.474186
0.139326
0.789331
0.127704
0.127692
0.127674
0.127645
0.139267
0.127704
0.139267
0.127670
0.315363
0.127708
0.207949
0.790857
0.790223
0.139263
0.127683
0.783582
0.276605
0.127704
0.139326
0.139247
0.276726
0.790177
0.790134
0.127658
0.208024
0.127703
0.127670
0.276726
0.790166
0.139263
0.790225
0.139234
0.790133
0.790204
0.790857
0.276726
0.276726
0.139267
0.474186
0.127660
0.127704
0.139263
0.140939
0.140939
0.139244
0.790169
0.790177
0.139257
0.127660
0.790125
0.150117
0.134791
0.139263
0.139254
0.809745
0.127703
0.127692
0.128715
0.139329
0.199670
0.127667
0.790145
0.789684
0.139254
0.139257
0.127647
0.139271
0.139244
0.127692
0.139244
0.127701
0.790773
0.139265
0.139242
0.139257
0.127701
0.127701
0.140939
0.139267
0.127692
0.150006
0.764883
0.127704
0.139271
0.127692
0.127677
0.139321
0.792083
0.127631
0.139267
0.790125
0.790184
0.127634
0.790773
0.790255
0.790209
0.139217
0.276790
0.139257
0.790224
0.127667
0.127683
0.790096
0.790965
0.127721
0.127645
0.790201
0.139326
0.127656
0.127692
0.139254
0.127634
0.809743
0.127647
0.128372
0.207943
0.127658
0.790209
0.139265
0.127631
0.790214
0.790125
0.127643
0.790115
0.140939
0.199670
0.208086
0.150006
0.139257
0.790100
0.127660
0.127715
0.127708
0.139271
0.139265
0.127704
0.790154
0.139265
0.276726
0.790007
0.276934
0.127683
0.127647
0.127670
0.127660
0.127674
0.127656
0.127660
0.790068
0.127647
0.127704
0.127703
0.127683
0.790154
0.790115
0.474186
0.127703
0.139257
0.790083
0.790145
0.809698
0.139244
0.790223
0.789900
0.790177
0.127701
0.128715
0.809781
0.127647
0.139254
0.789485
0.127658
0.128372
0.139257
0.139254
0.276721
0.790177
0.790106
0.790083
0.789652
0.127704
0.790113
0.127704
0.139232
0.208086
0.128372
0.127643
0.207949
0.783582
0.790177
0.127634
0.790154
0.127701
0.790857
0.790176
0.139257
0.140939
0.128372
0.127704
0.127703
0.790164
0.127701
0.134791
0.127658
0.127692
0.134791
0.783582
0.127703
0.139234
0.790213
0.809750
0.789641
0.139257
0.790177
0.127660
0.139244
0.790239
0.127889
0.790242
0.208086
0.208024
0.127692
0.127670
0.127660
0.127721
0.790119
0.127647
0.139267
0.790127
0.127636
0.127631
0.139257
0.128372
0.127647
0.127674
0.127701
0.139244
0.208024
0.790059
0.789850
0.790177
0.127683
0.139267
0.127611
0.127658
0.127647
0.207926
0.156667
0.790177
0.127670
0.139267
0.807588
0.127647
0.127692
0.127647
0.127643
0.139267
0.127636
0.127660
0.127647
0.127670
0.790149
0.127704
0.127647
0.192215
0.139263
0.127701
0.791313
0.127708
0.790177
0.139265
0.790098
0.139265
0.127611
0.139254
0.790206
0.127647
0.127704
0.134906
0.790857
0.276708
0.790199
0.276726
0.139257
0.127692
0.127701
0.127611
0.127677
0.127703
0.127660
0.139267
0.786887
0.127660
0.127647
0.790857
0.127660
0.127701
0.790223
0.127634
0.127703
0.127692
0.127704
0.759932
0.127647
0.207926
0.127660
0.276751
0.127667
0.276726
0.127656
0.790857
0.790105
0.139263
0.127670
0.790149
0.790105
0.207949
0.127721
0.790101
0.127704
0.686912
0.127634
0.127692
0.127647
0.790115
0.139321
0.139263
0.790206
0.791313
0.790206
0.127704
0.207926
0.139257
0.127658
0.139263
0.127704
0.127660
0.139244
0.790213
0.790106
0.276728
0.127708
0.276638
0.127647
0.750572
0.139263
0.139267
0.134906
0.134791
0.139257
0.128372
0.139254
0.127683
0.809750
0.127708
0.139254
0.127704
0.764883
0.809743
0.208024
0.127704
0.792751
0.790177
0.790068
0.790130
0.789483
0.207823
0.276779
0.790198
0.139257
0.786887
0.139242
0.127692
0.790068
0.139263
0.156667
0.127704
0.276747
0.207943
0.127645
0.790099
0.127674
0.139263
0.139319
0.790177
0.127636
0.128715
0.809770
0.128372
0.150117
0.790107
0.276726
0.127704
0.790166
0.127715
0.207823
0.794678
0.790204
0.139233
0.127701
0.127647
0.134906
0.127658
0.790145
0.276666
0.276726
0.750572
0.139254
0.790105
0.276699
0.790857
0.139267
0.139263
0.790154
0.139319
0.790209
0.790130
0.790249
0.139263
0.139321
0.276726
0.789684
0.139267
0.139329
0.790857
0.127701
0.790122
0.790136
0.764883
0.127703
0.127611
0.790857
0.139242
0.150117
0.789921
0.127692
0.790113
0.790125
0.127636
0.127670
0.790153
0.790154
0.807588
0.139254
0.199670
0.139267
0.790417
0.139263
0.790188
0.809698
0.790177
0.199670
0.790077
0.127692
0.150117
0.127611
0.790195
0.134791
0.127701
0.790417
0.127660
0.127715
0.127658
0.139321
0.156667
0.789967
0.139267
0.809698
0.789769
0.139263
0.139271
0.790177
0.139315
0.139254
0.790177
0.127692
0.789591
0.127704
0.127683
0.127692
0.315363
0.790857
0.127667
0.139265
0.790857
0.127658
0.790091
0.127701
0.127692
0.139254
0.139267
0.139254
0.127703
0.764883
0.139265
0.139326
0.790204
0.790153
0.127656
0.139254
0.127631
0.127692
0.127647
0.139267
0.139257
0.764883
0.127703
0.790857
0.127704
0.139267
0.809746
0.127692
0.789591
0.790188
0.127631
0.127670
0.790211
0.139232
0.790857
0.139263
0.127660
0.127677
0.139257
0.139267
0.790226
0.127658
0.139217
0.790126
0.139267
0.139244
0.790154
0.127704
0.139257
0.139319
0.139244
0.276726
0.127704
0.790209
0.139233
0.127708
0.276741
0.139257
0.127704
0.208024
0.127704
0.790198
0.790083
0.127889
0.139265
0.790746
0.127701
0.127674
0.789978
0.127677
0.127674
0.789724
0.127721
0.128372
0.798535
0.134906
0.127645
0.127658
0.127692
0.127611
0.134791
0.127645
0.790206
0.139263
0.790211
0.134791
0.790125
0.127634
0.127631
0.139247
0.127645
0.127647
0.276726
0.150117
0.128372
0.127631
0.790154
0.790131
0.790216
0.139244
0.127645
0.790224
0.276731
0.750572
0.127634
0.790177
0.127692
0.790857
0.127708
0.127701
0.127636
0.139244
0.127636
0.127683
0.134791
0.790224
0.127674
0.207823
0.139257
0.139234
0.789528
0.139321
0.790224
0.790083
0.276653
0.128372
0.127645
0.789608
0.150006
0.127704
0.139267
0.276726
0.127721
0.276726
0.790180
0.790180
0.139234
0.127660
0.139257
0.127643
0.139326
0.790196
0.127701
0.790176
0.790853
0.139232
0.127631
0.127715
0.127660
0.134791
0.790100
0.139257
0.139325
0.127704
0.139267
0.127692
0.790857
0.789437
0.790145
0.127670
0.139247
0.127660
0.127677
0.790115
0.315363
0.127670
0.127670
0.127645
0.139267
0.127701
0.127645
0.127692
0.127721
0.127708
0.127692
0.139257
0.150117
0.139326
0.127631
0.127701
0.139267
0.127701
0.790211
0.127670
0.276605
0.790131
0.127683
0.128372
0.139242
0.790857
0.127721
0.127704
0.127660
0.790107
0.207943
0.127701
0.127645
0.790160
0.134791
0.790126
0.127692
0.139263
0.139315
0.127715
0.127692
0.139254
0.790098
0.790129
0.207949
0.790177
0.150006
0.127703
0.139263
0.790180
0.790167
0.139234
0.127660
0.790125
0.127656
0.790169
0.127703
0.139267
0.139254
0.127704
0.208086
0.127704
0.207943
0.790165
0.127658
0.790857
0.790857
0.127647
0.127708
0.127660
0.228299
0.790241
0.127658
0.127704
0.139254
0.790163
0.139254
0.127660
0.276783
0.790857
0.139247
0.790209
0.790223
0.139257
0.790129
0.128372
0.127701
0.127670
0.807356
0.127704
0.790198
0.139257
0.156667
0.139329
0.127721
0.127670
0.139263
0.127660
0.790127
0.127660
0.790857
0.140939
0.790223
0.127721
0.139267
0.789561
0.127692
0.139244
0.790197
0.139267
0.127647
0.790183
0.127701
0.127647
0.139315
0.790206
0.128372
0.127701
0.127647
0.276726
0.276706
0.790136
0.207926
0.790177
0.139257
0.127683
0.127677
0.139257
0.790239
0.790205
0.127647
0.127704
0.139315
0.127704
0.207823
0.790136
0.139234
0.139267
0.127670
0.139257
0.127660
0.790177
0.790177
0.790226
0.139257
0.140939
0.139319
0.790206
0.790156
0.276779
0.276726
0.790214
0.790145
0.127660
0.127643
0.809784
0.139319
0.790853
0.208024
0.127704
0.127660
0.128372
0.127670
0.128372
0.127656
0.127721
0.127701
0.128372
0.127643
0.127647
0.139257
0.128372
0.199670
0.150117
0.127704
0.127708
0.207943
0.139242
0.139254
0.790132
0.127670
0.127721
0.127658
0.127703
0.276726
0.790196
0.127645
0.276726
0.127634
0.139265
0.127692
0.127674
0.127647
0.127704
0.127677
0.139244
0.128715
0.127670
0.139265
0.128715
0.139265
0.790176
0.127704
0.127692
0.790177
0.127703
0.127636
0.139315
0.127660
0.127704
0.790040
0.790773
0.128372
0.139315
0.127634
0.127658
0.129042
0.127660
0.139326
0.128372
0.127721
0.127721
0.790176
0.139267
0.790177
0.792142
0.139233
0.139267
0.192215
0.790857
0.127660
0.809750
0.127701
0.790173
0.789721
0.127677
0.127670
0.139319
0.127670
0.127721
0.129042
0.207949
0.276726
0.789999
0.127701
0.127692
0.139326
0.790177
0.134791
0.139267
0.790102
0.790208
0.127636
0.139234
0.207823
0.139257
0.127660
0.139257
0.127660
0.127670
0.127643
0.276726
0.127721
0.127703
0.790165
0.790064
0.139329
0.127708
0.139267
0.790857
0.127704
0.127692
0.139315
0.139265
0.139232
0.276726
0.127683
0.127889
0.794409
0.139326
0.790177
0.127647
0.790177
0.127645
0.140939
0.139263
0.134791
0.127721
0.790100
0.127677
0.139254
0.786887
0.790857
0.276726
0.790112
0.790177
0.474186
0.139263
0.790857
0.127692
0.127667
0.127660
0.139271
0.127643
0.127658
0.790149
0.127704
0.127701
0.474186
0.127701
0.790166
0.127670
0.127643
0.790182
0.139321
0.139254
0.127692
0.139263
0.127704
0.127704
0.139254
0.276726
0.276726
0.139263
0.127721
0.276726
0.790187
0.127692
0.789846
0.790146
0.790239
0.127660
0.764883
0.139254
0.127611
0.139217
0.128372
0.790100
0.127631
0.139247
0.790249
0.790201
0.790183
0.789769
0.139244
0.127658
0.127643
0.789800
0.127704
0.127704
0.127701
0.127658
0.276740
0.790201
0.129042
0.207943
0.790184
0.127658
0.790211
0.789406
0.790169
0.790119
0.127647
0.139217
0.139257
0.139267
0.139254
0.140939
0.139263
0.127692
0.134791
0.790211
0.127634
0.127611
0.809088
0.127656
0.156667
0.127660
0.790137
0.790857
0.790241
0.139257
0.128372
0.809471
0.790857
0.127660
0.127703
0.790126
0.139319
0.139242
0.139257
0.127692
0.127701
0.127647
0.127631
0.790125
0.139263
0.199670
0.790107
0.139257
0.127721
0.790177
0.276605
0.127670
0.139234
0.128372
0.139267
0.790857
0.127708
0.139234
0.127692
0.139247
0.127634
0.276726
0.790857
0.127701
0.790180
0.139265
0.139233
0.127674
0.790206
0.127656
0.791313
0.276804
0.790146
0.139257
0.127660
0.139242
0.139267
0.789591
0.134791
0.127704
0.192215
0.790204
0.127647
0.790965
0.127704
0.790144
0.139271
0.139315
0.139232
0.790062
0.790223
0.127647
0.207926
0.127701
0.128372
0.790119
0.129042
0.139321
0.809758
0.127660
0.127670
0.276726
0.139233
0.128372
0.790200
0.809088
0.127704
0.127704
0.127677
0.790857
0.790857
0.790177
0.276790
0.790177
0.127692
0.790202
0.790241
0.790198
0.276726
0.790098
0.139263
0.139257
0.139247
0.127721
0.127660
0.127631
0.139244
0.127721
0.790857
0.790167
0.127670
0.150117
0.790105
0.127636
0.127643
0.127656
0.790177
0.790176
0.127692
0.139267
0.790125
0.790115
0.139217
0.127670
0.127704
0.140939
0.139257
0.134791
0.127647
0.789608
0.127631
0.139263
0.276759
0.139254
0.790165
0.128372
0.127721
0.150117
0.139321
0.790112
0.139326
0.790136
0.139263
0.139257
0.127643
0.139257
0.790180
0.790105
0.139263
0.790125
0.127647
0.127647
0.809696
0.134791
0.127631
0.790177
0.127670
0.139326
0.127701
0.127692
0.127656
0.127611
0.790102
0.790202
0.127656
0.127647
0.276726
0.790131
0.790177
0.134906
0.128372
0.127704
0.790228
0.127631
0.790150
0.809471
0.134791
0.139257
0.127701
0.129042
0.127715
0.127703
0.276726
0.208086
0.150006
0.139257
0.150117
0.139257
0.139263
0.127660
0.127704
0.790857
0.127647
0.790097
0.127701
0.127636
0.790153
0.127721
0.127701
0.790188
0.127645
0.139257
0.139254
0.127692
0.139242
0.790266
0.790196
0.789994
0.127703
0.790417
0.127636
0.790129
0.134791
0.127658
0.139315
0.127636
0.127721
0.808881
0.127636
0.276726
0.127704
0.127708
0.139247
0.139242
0.790062
0.127677
0.276726
0.139263
0.139321
0.127658
0.207926
0.128372
0.128372
0.139257
0.127645
0.127704
0.127643
0.139242
0.276786
0.127721
0.790216
0.127643
0.208024
0.790179
0.127704
0.127708
0.790112
0.139233
0.128372
0.790153
0.127660
0.789366
0.127670
0.790176
0.127647
0.790076
0.790211
0.276785
0.139254
0.127647
0.127658
0.127692
0.127703
0.789608
0.790138
0.139234
0.127658
0.150117
0.139267
0.139271
0.207926
0.790106
0.129042
0.790092
0.127631
0.139234
0.790186
0.127658
0.150117
0.127721
0.127692
0.127692
0.807356
0.790099
0.127647
0.127704
0.790177
0.789560
0.790178
0.139257
0.134791
0.790180
0.127677
0.809698
0.790062
0.139234
0.127645
0.139234
0.790115
0.809750
0.127631
0.127667
0.276695
0.127647
0.207943
0.127692
0.139329
0.139263
0.127683
0.790169
0.128372
0.736563
0.790177
0.139257
0.127643
0.139244
0.139263
0.127611
0.128372
0.139326
0.127660
0.139267
0.127658
0.790177
0.139234
0.127701
0.127677
0.192215
0.207949
0.790164
0.139263
0.790125
0.127647
0.127670
0.276726
0.790096
0.127704
0.790177
0.790225
0.128372
0.127631
0.127692
0.790176
0.790178
0.276726
0.128372
0.139257
0.790083
0.139325
0.207823
0.790208
0.139265
0.127721
0.789937
0.127692
0.127701
0.127692
0.139242
0.790249
0.790150
0.207943
0.783582
0.139247
0.199670
0.276726
0.127701
0.790132
0.790075
0.127889
0.127658
0.127660
0.139257
0.808881
0.790177
0.139257
0.790857
0.790180
0.792751
0.790222
0.790077
0.276726
0.127703
0.127715
0.790098
0.127701
0.127636
0.127703
0.790102
0.127704
0.790104
0.790150
0.139267
0.127670
0.792751
0.315363
0.127692
0.127660
0.276759
0.127715
0.808881
0.127704
0.139254
0.790206
0.139257
0.127721
0.790187
0.127643
0.127660
0.127636
0.790134
0.127677
0.276639
0.127660
0.276726
0.790153
0.139247
0.139257
0.139326
0.127692
0.139257
0.192215
0.790107
0.790122
0.127611
0.139263
0.128372
0.127611
0.127701
0.790092
0.127692
0.127703
0.139319
0.139257
0.127658
0.127701
0.790249
0.129042
0.686912
0.127721
0.139263
0.150006
0.127670
0.790857
0.127704
0.139257
0.809696
0.139254
0.139326
0.792142
0.139267
0.127721
0.139263
0.139234
0.127611
0.790130
0.127670
0.276740
0.127645
0.789485
0.139271
0.127692
0.139254
0.127701
0.139315
0.207943
0.127704
0.790115
0.208086
0.150006
0.139242
0.127674
0.139257
0.150117
0.127636
0.127692
0.140939
0.276771
0.139257
0.790177
0.790100
0.127703
0.790177
0.127636
0.276726
0.127721
0.790262
0.139217
0.790213
0.794069
0.127704
0.127692
0.127636
0.139321
0.127703
0.789800
0.127660
0.139263
0.150117
0.127721
0.139254
0.127611
0.127704
0.128372
0.790206
0.790211
0.276726
0.127611
0.790177
0.794678
0.127703
0.127692
0.139217
0.127692
0.276726
0.790059
0.790201
0.128372
0.790112
0.790150
0.127658
0.127647
0.790773
0.127636
0.790177
0.128372
0.139257
0.139326
0.139267
0.127647
0.127634
0.139247
0.139263
0.139234
0.139233
0.139254
0.790177
0.139244
0.790177
0.139263
0.790120
0.790144
0.276726
0.127692
0.276804
0.790059
0.790218
0.790145
0.789476
0.134791
0.127704
0.276726
0.790059
0.139315
0.790188
0.128372
0.127658
0.276726
0.789978
0.127692
0.789560
0.127692
0.790125
0.276804
0.139319
0.790167
0.790145
0.127889
0.207949
0.790125
0.134906
0.139265
0.127660
0.139254
0.790206
0.139263
0.127674
0.127683
0.790182
0.792751
0.127658
0.790202
0.127611
0.127643
0.790202
0.790209
0.127643
0.139267
0.127660
0.139254
0.139267
0.686912
0.127701
0.127704
0.127647
0.790226
0.789940
0.790064
0.786887
0.127692
0.207943
0.127683
0.139242
0.192215
0.127701
0.127683
0.790153
0.139254
0.790105
0.790177
0.139244
0.790070
0.127721
0.790177
0.134791
0.139319
0.127631
0.127692
0.127667
0.790144
0.127631
0.139321
0.276653
0.139325
0.127683
0.139254
0.127645
0.127660
0.128372
0.790131
0.139242
0.134791
0.790201
0.789999
0.127704
0.127611
0.127611
0.790176
0.128372
0.127708
0.127670
0.139257
0.139254
0.127660
0.790177
0.790177
0.127889
0.139232
0.790177
0.790107
0.790208
0.794069
0.750572
0.127721
0.192215
0.139234
0.764883
0.790149
0.127692
0.139242
0.809784
0.139233
0.139234
0.790857
0.790007
0.809743
0.139254
0.790122
0.139263
0.790177
0.139267
0.139257
0.139257
0.139244
0.127677
0.127721
0.127692
0.127660
0.790223
0.127683
0.790167
0.139257
0.208024
0.128715
0.127658
0.127645
0.127636
0.127660
0.790201
0.139233
0.276726
0.790158
0.127647
0.207949
0.208024
0.128372
0.790075
0.139244
0.127692
0.127721
0.127660
0.139232
0.128715
0.127701
0.790177
0.139267
0.128372
0.276726
0.790857
0.790177
0.139254
0.127636
0.790102
0.790177
0.127660
0.789331
0.208024
0.140939
0.127701
0.794678
0.790177
0.127631
0.139234
0.790122
0.790177
0.139326
0.139319
0.127704
0.127660
0.127683
0.127704
0.127670
0.276661
0.790204
0.276741
0.790211
0.790165
0.127683
0.790177
0.789878
0.127677
0.128372
0.790204
0.127670
0.790179
0.127701
0.276725
0.139254
0.790176
0.139315
0.790202
0.790857
0.790177
0.276726
0.128372
0.790177
0.139263
0.139257
0.127704
0.127701
0.127715
0.139267
0.208086
0.134906
0.207949
0.276799
0.139254
0.207943
0.789594
0.809758
0.790176
0.789959
0.127611
0.790165
0.790206
0.127701
0.790105
0.790037
0.790122
0.139257
0.127647
0.127658
0.790857
0.790144
0.127658
0.127683
0.790206
0.790125
0.127704
0.139271
0.790119
0.139254
0.127670
0.139254
0.790077
0.127658
0.790177
0.127645
0.790223
0.127647
0.127704
0.139267
0.127660
0.790249
0.127636
0.276726
0.127704
0.127701
0.127667
0.790857
0.794678
0.127683
0.127715
0.139267
0.127658
0.128372
0.127636
0.127704
0.127636
0.790105
0.127647
0.790153
0.139242
0.127701
0.128372
0.790198
0.790206
0.127660
0.127658
0.139326
0.127667
0.790105
0.127692
0.127704
0.127692
0.139233
0.127703
0.790204
0.127660
0.276726
0.139257
0.139257
0.139263
0.127670
0.127631
0.128372
0.127701
0.139267
0.199670
0.139257
0.790177
0.790180
0.134791
0.127721
0.790119
0.127721
0.139257
0.127660
0.127701
0.127704
0.127721
0.789366
0.276726
0.127701
0.127658
0.276741
0.139325
0.128372
0.127647
0.789528
0.790122
0.127631
0.199670
0.139244
0.127636
0.139329
0.134906
0.140939
0.127643
0.276726
0.276726
0.150117
0.790125
0.790093
0.128372
0.199670
0.790224
0.139257
0.139319
0.207926
0.127704
0.127701
0.128372
0.127645
0.139257
0.128372
0.127703
0.127658
0.139247
0.790201
0.127634
0.790223
0.789774
0.127670
0.139257
0.139263
0.790177
0.127656
0.139263
0.790183
0.139263
0.139233
0.127634
0.127701
0.127703
0.139263
0.139257
0.127674
0.127704
0.128372
0.139244
0.127645
0.139263
0.127658
0.139234
0.127704
0.127692
0.790099
0.127643
0.790122
0.127660
0.139319
0.127645
0.139267
0.139257
0.127704
0.139267
0.127667
0.127647
0.790105
0.127658
0.127721
0.127889
0.150117
0.790225
0.127631
0.127683
0.809750
0.127692
0.790085
0.139257
0.127636
0.127647
0.127631
0.127704
0.127670
0.789483
0.207949
0.127647
0.139263
0.127721
0.276726
0.139257
0.127704
0.139234
0.139257
0.127715
0.127670
0.790177
0.759932
0.127643
0.139254
0.207823
0.150006
0.127658
0.127670
0.790188
0.139233
0.127658
0.809750
0.139257
0.139267
0.790177
0.127721
0.139247
0.139257
0.790127
0.139254
0.134791
0.139247
0.790122
0.790182
0.139321
0.139265
0.134906
0.809721
0.134791
0.789561
0.809768
0.139242
0.139315
0.139263
0.790177
0.134906
0.127704
0.127704
0.127683
0.139329
0.790122
0.790202
0.127703
0.156667
0.139315
0.129042
0.127677
0.127645
0.127660
0.127667
0.127647
0.139254
0.276726
0.790857
0.789331
0.790213
0.790206
0.127658
0.790746
0.128715
0.139257
0.790857
0.128372
0.789857
0.790857
0.134791
0.789641
0.790239
0.127692
0.139321
0.790177
0.139263
0.127692
0.139263
0.790125
0.134791
0.276726
0.139267
0.139329
0.790125
0.127704
0.790099
0.790177
0.474186
0.127667
0.127721
0.139257
0.790075
0.127701
0.790144
0.127658
0.139265
0.139254
0.809743
0.139254
0.139257
0.127645
0.127701
0.150117
0.127660
0.128715
0.134906
0.127634
0.790144
0.790177
0.127677
0.127715
0.790145
0.127645
0.128372
0.150006
0.139257
0.139263
0.139257
0.127715
0.127647
0.127611
0.790186
0.127660
0.127647
0.127643
0.139257
0.127611
0.790165
0.127703
0.139263
0.790180
0.208086
0.276726
0.789357
0.127645
0.139257
0.790857
0.139329
0.790135
0.790177
0.789960
0.789878
0.139257
0.790241
0.790204
0.127692
0.276731
0.127692
0.127645
0.127721
0.127647
0.127647
0.134791
0.207949
0.139233
0.139315
0.790177
0.790166
0.127660
0.127677
0.139263
0.127656
0.127647
0.686912
0.127611
0.276706
0.127704
0.127634
0.139257
0.127703
0.790096
0.790158
0.127658
0.276685
0.790167
0.276726
0.139247
0.127656
0.790180
0.790239
0.128372
0.139326
0.127645
0.127658
0.127670
0.790106
0.127683
0.790206
0.790209
0.127636
0.139319
0.140939
0.150006
0.791313
0.276726
0.127704
0.127721
0.790177
0.127701
0.127658
0.792751
0.127704
0.790125
0.127670
0.139263
0.127704
0.127647
0.276726
0.127660
0.139242
0.128372
0.150117
0.127701
0.128372
0.127658
0.139267
0.276699
0.127703
0.139234
0.790857
0.127677
0.127704
0.139267
0.139267
0.790244
0.127658
0.790177
0.127658
0.139267
0.127677
0.790168
0.128372
0.127701
0.207926
0.128372
0.139254
0.139267
0.790107
0.790177
0.139326
0.139267
0.790131
0.139257
0.139242
0.790105
0.790226
0.276726
0.127721
0.790205
0.139232
0.127721
0.139232
0.127701
0.127647
0.139232
0.139234
0.127660
0.199670
0.139263
0.127631
0.798535
0.139257
0.127611
0.139263
0.790113
0.276726
0.139242
0.790167
0.139326
0.127701
0.128372
0.139267
0.127656
0.127701
0.127703
0.789938
0.139244
0.127631
0.139267
0.790125
0.792142
0.790131
0.127692
0.790206
0.127715
0.128715
0.790122
0.139325
0.790182
0.127704
0.127692
0.192215
0.127692
0.127721
0.790188
0.127667
0.139315
0.790096
0.790176
0.790213
0.139271
0.127721
0.789560
0.790277
0.139263
0.276726
0.139217
0.139254
0.127703
0.789950
0.790857
0.312732
0.127645
0.127708
0.127674
0.139319
0.128372
0.790098
0.127677
0.127704
0.276685
0.139257
0.790224
0.139263
0.276726
0.127631
0.276676
0.807914
0.796543
0.790137
0.127660
0.139247
0.276726
0.790222
0.139319
0.809721
0.127645
0.139257
0.790130
0.790102
0.790075
0.790857
0.790167
0.128372
0.127703
0.139254
0.139244
0.127708
0.127647
0.134906
0.139267
0.139319
0.790177
0.790417
0.139263
0.139254
0.128715
0.276726
0.139326
0.127692
0.139267
0.127889
0.139267
0.127643
0.139242
0.127670
0.208086
0.790857
0.127701
0.127643
0.139267
0.128372
0.127647
0.139267
0.276726
0.127704
0.790068
0.128372
0.127721
0.127692
0.790201
0.127708
0.127889
0.790180
0.790857
0.276647
0.127656
0.790166
0.790068
0.129042
0.139247
0.127701
0.789959
0.790137
0.127670
0.790127
0.127643
0.790106
0.790857
0.788076
0.276726
0.276726
0.276633
0.127683
0.134791
0.129042
0.790149
0.139244
0.790177
0.134791
0.276726
0.790177
0.139263
0.127704
0.790131
0.790857
0.127692
0.276726
0.156667
0.127658
0.127674
0.790206
0.127670
0.790139
0.127645
0.127708
0.127660
0.790098
0.139263
0.139254
0.139267
0.127692
0.127670
0.139267
0.790177
0.276726
0.139263
0.315363
0.139242
0.790068
0.790198
0.790134
0.139329
0.127683
0.127670
0.127677
0.192215
0.127683
0.790196
0.139257
0.139326
0.790213
0.127643
0.134791
0.134791
0.790150
0.127889
0.139319
0.139257
0.139242
0.139271
0.790857
0.276726
0.150006
0.140939
0.139257
0.139257
0.139263
0.127670
0.127670
0.127692
0.764883
0.128715
0.127658
0.127658
0.139263
0.139254
0.808881
0.208086
0.139267
0.790223
0.139267
0.139233
0.790857
0.127647
0.127656
0.809750
0.156667
0.790167
0.127692
0.276786
0.127647
0.127631
0.276728
0.794678
0.792142
0.127701
0.129042
0.127704
0.790091
0.127704
0.139232
0.127692
0.790096
0.127658
0.790198
0.150117
0.127704
0.127683
0.156667
0.790131
0.127647
0.790177
0.139232
0.790127
0.276726
0.276726
0.790857
0.139321
0.128372
0.276726
0.790037
0.139254
0.790205
0.139254
0.127636
0.207943
0.139326
0.276726
0.139267
0.786887
0.139263
0.139263
0.127704
0.127634
0.790262
0.139257
0.127692
0.139244
0.790100
0.127701
0.474186
0.790115
0.474186
0.276790
0.127703
0.790857
0.790177
0.790068
0.127631
0.139263
0.127703
0.790149
0.127660
0.139234
0.139242
0.127667
0.127660
0.790206
0.208024
0.140939
0.139267
0.128715
0.790204
0.127631
0.139321
0.127660
0.128372
0.790857
0.790857
0.127701
0.127704
0.790163
0.127721
0.808106
0.790175
0.139217
0.809749
0.127703
0.207823
0.127611
0.127656
0.790965
0.127658
0.276726
0.764883
0.127647
0.277694
0.127658
0.127721
0.790169
0.790102
0.139265
0.139257
0.127677
0.127645
0.276726
0.789591
0.139254
0.127660
0.276726
0.790177
0.276726
0.127721
0.127704
0.783582
0.139257
0.783582
0.790180
0.139244
0.139244
0.127674
0.139315
0.139244
0.127703
0.790857
0.140939
0.789938
0.127670
0.139254
0.127645
0.127636
0.139234
0.790177
0.139326
0.139271
0.127677
0.128372
0.127721
0.139242
0.789357
0.790238
0.790177
0.127704
0.127660
0.790177
0.127704
0.790144
0.790169
0.790223
0.793575
0.127611
0.139254
0.790857
0.315363
0.790076
0.276728
0.207926
0.127611
0.127647
0.127704
0.127656
0.139257
0.139263
0.474186
0.139254
0.276726
0.127660
0.127645
0.127647
0.129042
0.127658
0.790106
0.789737
0.790145
0.790125
0.790180
0.139254
0.127660
0.792751
0.134906
0.790177
0.139267
0.790166
0.790137
0.128372
0.139263
0.127704
0.127658
0.790206
0.790180
0.790115
0.127670
0.127708
0.127692
0.790857
0.127660
0.139254
0.139254
0.790131
0.127704
0.790115
0.790857
0.127656
0.207823
0.127636
0.790177
0.790149
0.207943
0.139254
0.139217
0.127660
0.127660
0.276726
0.127703
0.127667
0.207823
0.127701
0.127670
0.139265
0.139234
0.790143
0.127647
0.128372
0.276726
0.127634
0.276726
0.789652
0.207949
0.208086
0.127670
0.139267
0.790106
0.139326
0.127647
0.790167
0.139257
0.127658
0.128372
0.139265
0.127708
0.134791
0.139257
0.790223
0.127692
0.139232
0.139217
0.127660
0.127643
0.127703
0.139263
0.789950
0.139234
0.128372
0.127670
0.139267
0.127721
0.315363
0.128372
0.790179
0.790068
0.790029
0.276726
0.790201
0.128715
0.127647
0.790195
0.127704
0.127636
0.789994
0.127704
0.750572
0.792751
0.436200
0.129042
0.127692
0.127643
0.276726
0.139263
0.790115
0.207823
0.790160
0.790857
0.127660
0.790167
0.139254
0.127704
0.134791
0.807914
0.139329
0.127703
0.127701
0.139257
0.790098
0.790177
0.790115
0.790113
0.127647
0.192215
0.139244
0.127660
0.127683
0.139271
0.139267
0.809698
0.807356
0.127658
0.139254
0.156667
0.139263
0.127683
0.127643
0.139254
0.127704
0.127701
0.127611
0.139254
0.127645
0.139326
0.127692
0.790226
0.127660
0.790153
0.128372
0.127634
0.127670
0.139254
0.139329
0.276728
0.129042
0.139247
0.139234
0.790857
0.128372
0.127647
0.134791
0.127667
0.139242
0.139254
0.127715
0.139315
0.139319
0.790183
0.809698
0.139257
0.790177
0.315363
0.127701
0.127647
0.127647
0.790076
0.139263
0.127721
0.139315
0.808881
0.276726
0.139232
0.127704
0.276676
0.127677
0.139257
0.139257
0.809745
0.139326
0.127708
0.139254
0.790168
0.790417
0.127670
0.192215
0.139233
0.127701
0.128372
0.276726
0.791313
0.127647
0.276726
0.129042
0.139254
0.127708
0.127701
0.127634
0.134791
0.139217
0.127708
0.127634
0.139242
0.127704
0.790122
0.139315
0.139326
0.790004
0.127660
0.786887
0.139267
0.127634
0.139263
0.139254
0.790160
0.794069
0.156667
0.139242
0.809768
0.128372
0.139267
0.139257
0.127683
0.139257
0.613749
0.474186
0.127692
0.127683
0.127721
0.127631
0.139326
0.127703
0.790119
0.207949
0.199670
0.127701
0.127634
0.139257
0.127643
0.790857
0.139267
0.790177
0.128372
0.127636
0.139242
0.139319
0.127889
0.139267
0.139254
0.127647
0.790205
0.127704
0.139263
0.790098
0.790857
0.128372
0.790857
0.139267
0.127658
0.127660
0.140939
0.127704
0.139254
0.759932
0.790198
0.156667
0.127704
0.127721
0.789357
0.139267
0.790163
0.207943
0.127708
0.127704
0.790177
0.127704
0.792751
0.790179
0.127701
0.127647
0.790221
0.127670
0.139267
0.127692
0.790166
0.127645
0.207823
0.127647
0.127715
0.127708
0.134791
0.127645
0.139267
0.129042
0.790139
0.127658
0.139265
0.139267
0.127656
0.127631
0.790239
0.127658
0.127660
0.315363
0.129042
0.790083
0.127643
0.127677
0.127701
0.750572
0.790061
0.790857
0.790249
0.139254
0.127704
0.790097
0.139257
0.790206
0.127715
0.790177
0.789774
0.127708
0.789921
0.790244
0.789927
0.139326
0.127611
0.686912
0.790213
0.139234
0.139257
0.127670
0.127721
0.128372
0.139254
0.150117
0.127677
0.276695
0.790208
0.790137
0.783582
0.790104
0.127636
0.790156
0.127611
0.502251
0.789857
0.127660
0.790131
0.789594
0.127704
0.127701
0.139257
0.139234
0.127647
0.127692
0.139326
0.790115
0.790169
0.139267
0.127704
0.150117
0.127647
0.139234
0.134791
0.790075
0.139254
0.127701
0.790262
0.139265
0.790196
0.127703
0.139265
0.127658
0.127634
0.139263
0.127704
0.790106
0.127683
0.139257
0.276726
0.790125
0.127658
0.790857
0.790857
0.790857
0.127701
0.127658
0.139257
0.127889
0.790215
0.474186
0.790857
0.139326
0.789483
0.127634
0.128715
0.139234
0.127704
0.790206
0.127708
0.139247
0.790773
0.139247
0.127683
0.790127
0.790857
0.790169
0.139267
0.790173
0.127701
0.276726
0.127670
0.207949
0.789938
0.790134
0.127692
0.139257
0.127708
0.790177
0.127704
0.139234
0.139257
0.127704
0.790149
0.139271
0.474186
0.139267
0.127611
0.790857
0.791313
0.199670
0.134791
0.276726
0.127704
0.128372
0.127670
0.139257
0.139326
0.139233
0.139265
0.199670
0.790417
0.127683
0.789366
0.127670
0.207943
0.127701
0.127658
0.127721
0.139265
0.139263
0.139315
0.790266
0.127703
0.790857
0.127703
0.790221
0.207943
0.790223
0.790177
0.790204
0.790125
0.139325
0.139254
0.764883
0.790177
0.156667
0.127683
0.139234
0.127670
0.790857
0.127656
0.128372
0.139257
0.139254
0.139257
0.276726
0.790241
0.789591
0.790208
0.790180
0.276726
0.790070
0.127670
0.790857
0.276726
0.139325
0.790132
0.790222
0.807588
0.128372
0.134791
0.127660
0.790111
0.127667
0.208086
0.127715
0.139321
0.127636
0.790075
0.127721
0.129042
0.790127
0.127647
0.139217
0.156667
0.790111
0.790177
0.127721
0.134791
0.139265
0.790125
0.127701
0.139267
0.127704
0.139247
0.139234
0.789769
0.128372
0.276726
0.127692
0.127658
0.139257
0.139257
0.139263
0.127683
0.127704
0.790857
0.139267
0.276726
0.790125
0.790077
0.140939
0.613749
0.276726
0.127660
0.139257
0.139247
0.790857
0.127721
0.127721
0.790206
0.139232
0.150117
0.139254
0.790857
0.139232
0.139254
0.140939
0.790125
0.790857
0.127643
0.128715
0.790166
0.276682
0.207926
0.127636
0.790202
0.790115
0.139267
0.139233
0.276783
0.127704
0.790119
0.790206
0.139267
0.790153
0.127715
0.790168
0.199670
0.790125
0.764883
0.207943
0.790168
0.790213
0.276726
0.127643
0.790177
0.139254
0.790064
0.127631
0.192215
0.127692
0.790091
0.139263
0.139321
0.139267
0.276728
0.127692
0.790176
0.790075
0.127704
0.127670
0.790125
0.790239
0.127704
0.127660
0.791313
0.192215
0.127660
0.139267
0.127703
0.127636
0.127645
0.127656
0.276726
0.139254
0.139267
0.139263
0.139254
0.139271
0.139326
0.790238
0.276740
0.127656
0.790105
0.790078
0.127701
0.128372
0.127670
0.139263
0.276731
0.139267
0.127704
0.790143
0.127611
0.139254
0.276666
0.127658
0.790125
0.794678
0.127647
0.139242
0.127647
0.127647
0.134791
0.276726
0.790225
0.134906
0.790165
0.790857
0.127647
0.208024
0.790198
0.127643
0.790125
0.127658
0.276799
0.127703
0.276785
0.686912
0.790080
0.809743
0.139265
0.139267
0.790085
0.139257
0.127643
0.790177
0.790180
0.790206
0.139242
0.127708
0.790167
0.790106
0.790163
0.134791
0.127643
0.790177
0.127656
0.127704
0.127692
0.127692
0.139257
0.127708
0.139267
0.276726
0.127660
0.127658
0.128715
0.276726
0.127645
0.127670
0.192215
0.127721
0.127670
0.127611
0.127636
0.127658
0.139233
0.127704
0.139257
0.790857
0.139257
0.127708
0.790182
0.127692
0.127645
0.790188
0.127631
0.127645
0.127643
0.150006
0.208024
0.127708
0.790211
0.139234
0.207823
0.790177
0.790223
0.127631
0.208024
0.127656
0.140939
0.790857
0.790168
0.127647
0.139265
0.764883
0.139267
0.790206
0.127721
0.127645
0.139247
0.127703
0.127670
0.276726
0.127683
0.127631
0.150117
0.790853
0.790857
0.789774
0.128372
0.139247
0.139267
0.127701
0.139263
0.127660
0.127658
0.127670
0.276726
0.207926
0.139271
0.790857
0.139234
0.128372
0.127634
0.276639
0.128372
0.790206
0.127721
0.139325
0.127660
0.139244
0.790119
0.127647
0.139329
0.127645
0.790119
0.276726
0.276789
0.128715
0.790125
0.474186
0.790200
0.127643
0.139321
0.127721
0.127670
0.127692
0.139254
0.127721
0.790188
0.127643
0.790167
0.139329
0.127683
0.800628
0.790151
0.192215
0.127645
0.156667
0.134906
0.790857
0.276694
0.127703
0.127670
0.134791
0.127656
0.127704
0.790177
0.139271
0.800628
0.790115
0.127701
0.127701
0.134791
0.276726
0.139247
0.127645
0.276726
0.139232
0.127647
0.790857
0.790149
0.790188
0.790216
0.139254
0.790177
0.139254
0.139257
0.790857
0.277694
0.127677
0.127703
0.139257
0.127670
0.790177
0.207926
0.790857
0.127701
0.790125
0.790204
0.139234
0.750572
0.127658
0.139257
0.139244
0.207943
0.139263
0.139267
0.139247
0.127701
0.127692
0.139265
0.790277
0.790125
0.127701
0.809797
0.790177
0.139271
0.129042
0.790075
0.809698
0.798535
0.790125
0.139257
0.790196
0.127611
0.790145
0.783582
0.127704
0.139257
0.127692
0.790083
0.140939
0.789406
0.790204
0.276726
0.207943
0.789721
0.127643
0.790857
0.790136
0.790068
0.139267
0.127670
0.128372
0.127721
0.128372
0.139257
0.790223
0.789652
0.127683
0.139247
0.790857
0.127658
0.790223
0.127692
0.790127
0.150006
0.208024
0.139242
0.127660
0.139257
0.139267
0.789476
0.127721
0.790160
0.139234
0.127634
0.139329
0.790857
0.139233
0.139242
0.127634
0.127647
0.127645
0.790125
0.139267
0.127704
0.139254
0.127647
0.127660
0.139326
0.790127
0.276726
0.128372
0.127611
0.790224
0.127611
0.127704
0.127703
0.127704
0.276615
0.783582
0.790149
0.128372
0.127701
0.127703
0.127701
0.139254
0.139315
0.127692
0.790188
0.127692
0.139267
0.139267
0.207943
0.790075
0.127660
0.139267
0.127703
0.127645
0.127660
0.139254
0.127692
0.139257
0.139263
0.127670
0.790857
0.790169
0.139267
0.127704
0.127636
0.127658
0.790200
0.127721
0.127645
0.790125
0.809698
0.127704
0.790059
0.790126
0.127645
0.790188
0.127692
0.127631
0.139326
0.208024
0.139267
0.127643
0.139267
0.207823
0.127703
0.127692
0.790211
0.276726
0.790149
0.127643
0.128372
0.790117
0.127643
0.791313
0.127721
0.790056
0.789594
0.129042
0.192215
0.127670
0.127660
0.127721
0.156667
0.127645
0.276726
0.790115
0.127636
0.139329
0.790223
0.127631
0.134791
0.127692
0.127645
0.127611
0.789927
0.127647
0.139267
0.808881
0.276783
0.790149
0.127704
0.127704
0.127701
0.790177
0.686912
0.139234
0.276701
0.790131
0.207943
0.139257
0.134791
0.790115
0.474186
0.139232
0.127683
0.790177
0.139315
0.790106
0.127660
0.276726
0.127701
0.207943
0.127683
0.276797
0.127701
0.127670
0.192215
0.139217
0.790857
0.127660
0.790857
0.790130
0.127667
0.790182
0.790209
0.139234
0.127656
0.127636
0.128372
0.128372
0.127670
0.207926
0.790177
0.127692
0.139254
0.156667
0.127683
0.127708
0.315363
0.134791
0.790105
0.139267
0.127656
0.127721
0.139254
0.276726
0.790226
0.790857
0.127660
0.127677
0.127670
0.139263
0.127611
0.794069
0.790177
0.790215
0.315363
0.789608
0.208024
0.127667
0.790115
0.790262
0.139267
0.208086
0.140939
0.150006
0.474186
0.127658
0.127677
0.127721
0.790122
0.790266
0.127721
0.127677
0.790177
0.128372
0.790177
0.790130
0.139257
0.127704
0.127631
0.276726
0.790119
0.127660
0.127721
0.127660
0.127701
0.276726
0.127656
0.207823
0.790177
0.790125
0.127715
0.127721
0.790131
0.790166
0.139267
0.127643
0.764883
0.139234
0.127708
0.790209
0.127704
0.127658
0.128372
0.139254
0.790107
0.139321
0.790177
0.790125
0.790177
0.127647
0.127701
0.790096
0.276726
0.139319
0.790221
0.127647
0.790125
0.790177
0.127647
0.139326
0.139254
0.127670
0.790083
0.139315
0.790059
0.140939
0.790223
0.127692
0.139217
0.809750
0.128715
0.134906
0.790204
0.127704
0.127683
0.790208
0.790131
0.127704
0.156667
0.139267
0.790224
0.127683
0.790100
0.128372
0.127704
0.127692
0.790125
0.790180
0.139232
0.127667
0.790062
0.276726
0.790168
0.139217
0.127647
0.127660
0.139257
0.127643
0.127692
0.139267
0.127643
0.127889
0.150117
0.150117
0.790179
0.127704
0.127708
0.139242
0.276726
0.127704
0.127658
0.127660
0.790182
0.791313
0.790083
0.156667
0.139242
0.127704
0.139257
0.140939
0.750572
0.139254
0.139267
0.127692
0.127645
0.127660
0.139254
0.127667
0.276726
0.790098
0.127636
0.139257
0.790130
0.139329
0.790131
0.790132
0.790857
0.792751
0.139257
0.790160
0.139267
0.127704
0.128372
0.789476
0.139254
0.139254
0.127701
0.276726
0.139257
0.790857
0.134791
0.128372
0.139265
0.139326
0.127670
0.139321
0.127704
0.127647
0.790136
0.139232
0.139325
0.139244
0.139263
0.127677
0.127677
0.790085
0.127701
0.139263
0.139265
0.127645
0.139267
0.790029
0.127674
0.128715
0.790115
0.139267
0.790126
0.790224
0.276782
0.127704
0.127647
0.127704
0.127660
0.127658
0.790150
0.150117
0.139257
0.127643
0.790211
0.790180
0.139267
0.139326
0.790857
0.127692
0.790177
0.127715
0.127708
0.127611
0.790857
0.790857
0.127647
0.790131
0.127721
0.127704
0.790182
0.127636
0.139234
0.276726
0.150006
0.139234
0.128372
0.139257
0.790112
0.127704
0.807356
0.127643
0.276726
0.139267
0.139267
0.139329
0.790077
0.139257
0.789527
0.139244
0.790125
0.127643
0.127643
0.156667
0.127889
0.139254
0.127692
0.192215
0.790188
0.127643
0.139254
0.127660
0.127670
0.127647
0.127611
0.139242
0.127667
0.127660
0.139315
0.139267
0.139321
0.139319
0.139244
0.276726
0.150117
0.139325
0.139234
0.139326
0.127692
0.790228
0.139267
0.276726
0.127660
0.127692
0.474186
0.790857
0.790177
0.139257
0.139315
0.207926
0.139242
0.790857
0.789652
0.139257
0.789967
0.127670
0.790857
0.790857
0.127704
0.127643
0.789608
0.789769
0.790068
0.139233
0.139265
0.127692
0.139271
0.790853
0.127670
0.127647
0.127674
0.790857
0.276726
0.276721
0.127701
0.139254
0.790091
0.790177
0.156667
0.139319
0.127692
0.139242
0.139325
0.127647
0.139263
0.790075
0.207926
0.128372
0.790125
0.790153
0.139254
0.127703
0.127631
0.127721
0.790857
0.127701
0.127658
0.127670
0.127660
0.128372
0.127645
0.150117
0.127643
0.792751
0.127658
0.199670
0.790105
0.127636
0.139267
0.139267
0.790131
0.127647
0.790213
0.790857
0.150006
0.127643
0.791313
0.790075
0.783582
0.139263
0.139321
0.139326
0.276726
0.127647
0.127721
0.790177
0.790115
0.139233
0.139263
0.139257
0.139267
0.790177
0.127643
0.134791
0.139257
0.809747
0.139257
0.127660
0.139234
0.791313
0.127660
0.276726
0.207926
0.139267
0.127636
0.790201
0.139263
0.790179
0.127708
0.127704
0.127647
0.127889
0.139254
0.789981
0.790127
0.790180
0.128372
0.139263
0.790857
0.139254
0.127721
0.127611
0.790168
0.127692
0.207926
0.134791
0.127701
0.208024
0.128372
0.139257
0.127667
0.139267
0.127703
0.150006
0.790093
0.127704
0.276726
0.790102
0.474186
0.139257
0.127701
0.127645
0.140939
0.134791
0.790177
0.764883
0.790206
0.809696
0.790068
0.790209
0.128372
0.790177
0.276745
0.789357
0.127658
0.128372
0.127708
0.127674
0.139257
0.127645
0.139267
0.127660
0.127704
0.128715
0.127643
0.127660
0.139263
0.127660
0.790177
0.790211
0.127647
0.127645
0.790115
0.791313
0.139265
0.139257
0.139244
0.789652
0.127645
0.139267
0.127701
0.790131
0.790127
0.276726
0.790206
0.127889
0.790129
0.790177
0.790206
0.276726
0.127704
0.790105
0.150117
0.790857
0.790112
0.139234
0.127631
0.276726
0.150117
0.156667
0.139263
0.127703
0.127670
0.139234
0.128372
0.790177
0.128372
0.127660
0.127670
0.789331
0.276726
0.790216
0.127704
0.134906
0.139329
0.127708
0.127721
0.790076
0.127701
0.139233
0.128372
0.127645
0.139267
0.139257
0.790201
0.134906
0.790223
0.127636
0.790146
0.127631
0.139257
0.139247
0.128372
0.790167
0.139271
0.139267
0.139257
0.139233
0.790177
0.128372
0.790064
0.139271
0.139257
0.127658
0.128372
0.127692
0.128372
0.750572
0.790168
0.127647
0.127704
0.127704
0.686912
0.127701
0.127692
0.150117
0.127667
0.790177
0.139247
0.127658
0.127683
0.127647
0.129042
0.315363
0.127715
0.790200
0.807356
0.139326
0.127683
0.134906
0.127704
0.127647
0.792643
0.790857
0.790239
0.790222
0.790206
0.192215
0.790262
0.790197
0.790213
0.127721
0.134791
0.790068
0.790122
0.474186
0.127660
0.139254
0.128372
0.139257
0.790125
0.129042
0.127660
0.127704
0.127667
0.127703
0.790206
0.156667
0.790115
0.790183
0.139267
0.139254
0.790154
0.207823
0.127889
0.199670
0.139244
0.276726
0.127692
0.127647
0.127704
0.127660
0.127660
0.139263
0.790125
0.139242
0.790244
0.790223
0.127631
0.127721
0.139263
0.127692
0.127611
0.156667
0.790106
0.789407
0.127636
0.127670
0.127658
0.139257
0.156667
0.127647
0.790166
0.127721
0.790177
0.139234
0.790186
0.790106
0.127703
0.139233
0.139217
0.127708
0.128372
0.809758
0.127647
0.127647
0.311588
0.790857
0.790857
0.790076
0.128715
0.127670
0.207926
0.809471
0.127660
0.790232
0.139234
0.789769
0.127692
0.127647
0.127703
0.150006
0.790125
0.127704
0.139263
0.790191
0.127721
0.790125
0.139254
0.127647
0.789560
0.139254
0.208086
0.790180
0.750572
0.127704
0.150117
0.139257
0.139257
0.127683
0.276726
0.790853
0.809749
0.139271
0.127660
0.127704
0.127658
0.790154
0.127647
0.127658
0.790145
0.127703
0.139257
0.790177
0.790068
0.276725
0.790105
0.139257
0.790213
0.809746
0.139267
0.790130
0.790857
0.794678
0.790177
0.276747
0.127658
0.207823
0.127647
0.139257
0.790091
0.276726
0.139234
0.759932
0.790168
0.790149
0.276726
0.127645
0.139265
0.127701
0.790857
0.276740
0.127660
0.128372
0.139232
0.139326
0.127701
0.139254
0.127611
0.791313
0.139326
0.128372
0.127645
0.789921
0.128372
0.139263
0.276726
0.139326
0.208024
0.134791
0.139257
0.127645
0.127715
0.127692
0.199670
0.127715
0.790857
0.128372
0.807356
0.139321
0.139257
0.276740
0.127658
0.127647
0.127634
0.127647
0.790169
0.790105
0.128372
0.207926
0.127704
0.139267
0.139257
0.139267
0.139326
0.127647
0.127692
0.127701
0.127721
0.790115
0.789366
0.139242
0.790211
0.790206
0.128372
0.790139
0.134906
0.127704
0.134906
0.809746
0.276771
0.139257
0.139217
0.139265
0.139267
0.128372
0.139267
0.790105
0.139257
0.128715
0.276710
0.127611
0.127703
0.150117
0.139254
0.139326
0.139263
0.790070
0.790965
0.790169
0.134791
0.139257
0.790211
0.127631
0.790125
0.790177
0.474186
0.127647
0.207949
0.276725
0.128372
0.127704
0.783582
0.790143
0.139326
0.139267
0.790125
0.276726
0.127677
0.127670
0.790158
0.276726
0.208024
0.128372
0.790857
0.790136
0.127703
0.139257
0.790177
0.790136
0.127721
0.127670
0.764883
0.127670
0.139325
0.127658
0.127645
0.139257
0.790857
0.208024
0.790177
0.790105
0.139329
0.129042
0.790115
0.790202
0.790153
0.790122
0.790188
0.790180
0.790145
0.139267
0.790211
0.790136
0.139254
0.127692
0.276726
0.790085
0.789331
0.208024
0.127670
0.127677
0.139319
0.764883
0.276694
0.790857
0.139254
0.790125
0.790126
0.127658
0.127703
0.127647
0.127658
0.127703
0.790105
0.139325
0.139265
0.790192
0.139244
0.127692
0.794409
0.127636
0.128715
0.790085
0.127636
0.127658
0.134791
0.139254
0.139319
0.790154
0.139233
0.790064
0.790225
0.703052
0.139234
0.790857
0.127692
0.139326
0.139265
0.139254
0.127645
0.134791
0.127701
0.208024
0.127704
0.139257
0.127704
0.790183
0.192215
0.134791
0.764883
0.139263
0.127660
0.790221
0.127692
0.783582
0.276726
0.207943
0.139257
0.139247
0.128372
0.790110
0.127656
0.127636
0.127703
0.276726
0.127660
0.139267
0.790177
0.139257
0.127715
0.276726
0.139271
0.790857
0.276726
0.127704
0.139265
0.139257
0.703052
0.790115
0.276726
0.127677
0.139257
0.790183
0.366622
0.127704
0.790213
0.139254
0.127692
0.790857
0.790176
0.127660
0.139257
0.790169
0.127634
0.790117
0.790156
0.790177
0.139267
0.150117
0.790224
0.127674
0.792751
0.139321
0.156667
0.139257
0.207949
0.276726
0.128372
0.127670
0.139254
0.790125
0.794678
0.127683
0.139254
0.127889
0.790076
0.139254
0.139257
0.276721
0.127631
0.127631
0.790130
0.686912
0.790125
0.139257
0.807914
0.127701
0.127647
0.127634
0.127677
0.809770
0.127692
0.127677
0.790177
0.139326
0.134791
0.127660
0.315363
0.127643
0.790207
0.790102
0.127701
0.134791
0.790206
0.127647
0.790209
0.134791
0.127704
0.790213
0.127634
0.790177
0.207949
0.127683
0.127692
0.127677
0.139265
0.790105
0.809743
0.127660
0.127611
0.139257
0.208086
0.139267
0.139257
0.790064
0.790857
0.127658
0.139263
0.790180
0.127704
0.790125
0.127658
0.127660
0.139267
0.127670
0.790773
0.790177
0.139321
0.276726
0.790076
0.790098
0.789850
0.128372
0.127658
0.199670
0.139329
0.127704
0.790857
0.790202
0.139267
0.790102
0.790126
0.139271
0.789591
0.790183
0.127647
0.127683
0.127643
0.128372
0.790166
0.139271
0.139257
0.139263
0.128372
0.790200
0.139257
0.127647
0.127647
0.789994
0.139232
0.127631
0.276726
0.127643
0.792142
0.139254
0.789670
0.790177
0.139267
0.127647
0.139254
0.790857
0.127715
0.139233
0.276790
0.790105
0.127704
0.127674
0.127656
0.127704
0.150006
0.276726
0.139254
0.139321
0.790241
0.207949
0.127701
0.790857
0.139263
0.139271
0.134906
0.127721
0.128372
0.127701
0.139244
0.207949
0.127647
0.790149
0.127645
0.140939
0.208086
0.127708
0.139267
0.127701
0.790176
0.150117
0.127670
0.127704
0.139254
0.127703
0.127647
0.790177
0.276726
0.127636
0.127704
0.139242
0.790177
0.127636
0.139242
0.276647
0.790183
0.790857
0.276726
0.139267
0.139257
0.127611
0.127670
0.127660
0.276726
0.207943
0.150006
0.134791
0.790177
0.139254
0.809747
0.127704
0.790177
0.790857
0.790176
0.790857
0.790077
0.127660
0.128372
0.790177
0.127660
0.127704
0.139267
0.128372
0.139326
0.474186
0.192215
0.276726
0.139242
0.790096
0.792142
0.207823
0.793575
0.139315
0.127721
0.127645
0.139257
0.207823
0.127704
0.127645
0.790857
0.127701
0.127611
0.134791
0.789591
0.127636
0.750572
0.127611
0.127631
0.276726
0.502251
0.139267
0.790167
0.127715
0.790105
0.139257
0.790177
0.139233
0.150117
0.790177
0.127660
0.276726
0.790106
0.199670
0.790129
0.127670
0.127701
0.127703
0.127647
0.207943
0.127721
0.809764
0.156667
0.276695
0.127670
0.139233
0.208024
0.127704
0.276726
0.276726
0.139234
0.790099
0.809696
0.127704
0.139267
0.794069
0.276726
0.127660
0.276726
0.139257
0.127703
0.790168
0.764883
0.139247
0.127692
0.128372
0.139315
0.127660
0.790239
0.139232
0.790167
0.127715
0.127631
0.790196
0.127715
0.127704
0.790188
0.127647
0.127701
0.790145
0.276726
0.127701
0.127670
0.140939
0.127636
0.127645
0.127658
0.127704
0.783582
0.127658
0.127670
0.790857
0.127704
0.127636
0.127660
0.809768
0.139257
0.276790
0.139263
0.139263
0.790208
0.127647
0.139263
0.790206
0.790202
0.139254
0.276726
0.790111
0.127721
0.139267
0.127670
0.790857
0.789482
0.127703
0.127708
0.790201
0.127704
0.127701
0.127704
0.127701
0.139319
0.790131
0.276797
0.790004
0.276726
0.139234
0.139267
0.127704
0.127660
0.127704
0.789850
0.276726
0.127670
0.127645
0.139319
0.790857
0.790202
0.790127
0.809471
0.127647
0.127692
0.139254
0.790201
0.808106
0.790131
0.208024
0.139233
0.790198
0.127708
0.139217
0.792751
0.790099
0.139244
0.127692
0.127692
0.139329
0.790177
0.139271
0.790131
0.127692
0.127704
0.127708
0.127645
0.127701
0.127631
0.127660
0.139254
0.127670
0.127704
0.127704
0.790239
0.790188
0.789652
0.129042
0.127660
0.139263
0.276721
0.127701
0.127647
0.789665
0.686912
0.127634
0.790166
0.790189
0.139265
0.127704
0.127715
0.139254
0.150117
0.127670
0.474186
0.127704
0.139315
0.127643
0.127658
0.127692
0.127636
0.208024
0.139232
0.790177
0.127721
0.139267
0.139233
0.750572
0.128372
0.790277
0.790083
0.139263
0.276726
0.127660
0.139267
0.276707
0.139267
0.139242
0.139267
0.790134
0.150006
0.139326
0.127643
0.127674
0.790131
0.139242
0.139263
0.139254
0.276605
0.764883
0.792142
0.127658
0.127721
0.127611
0.127645
0.128372
0.790132
0.127692
0.127660
0.127647
0.127692
0.127704
0.128372
0.127670
0.207949
0.150117
0.139234
0.139267
0.139319
0.128372
0.790167
0.790857
0.127703
0.139217
0.790077
0.127677
0.140939
0.139254
0.127645
0.276726
0.139257
0.139257
0.790176
0.134791
0.790224
0.474186
0.139254
0.139254
0.127677
0.139263
0.127704
0.139265
0.127721
0.139319
0.139257
0.128372
0.156667
0.790857
0.139265
0.134791
0.140939
0.790168
0.127670
0.790096
0.139267
0.127643
0.127645
0.789465
0.790102
0.127703
0.764883
0.790182
0.127708
0.127670
0.139263
0.790127
0.790107
0.127715
0.790112
0.127647
0.790773
0.790177
0.127631
0.139329
0.127636
0.790177
0.127658
0.192215
0.790857
0.809698
0.139257
0.790100
0.139315
0.790177
0.276726
0.127701
0.790177
0.128372
0.127643
0.127721
0.139271
0.139326
0.127634
0.127656
0.790004
0.127703
0.127704
0.127704
0.764883
0.127660
0.139242
0.790177
0.790099
0.127708
0.790130
0.790188
0.139265
0.790040
0.127660
0.790037
0.127656
0.127692
0.139254
0.139257
0.127692
0.139257
0.127708
0.139254
0.127703
0.139247
0.790857
0.139267
0.134791
0.139257
0.127692
0.276638
0.127715
0.127647
0.128372
0.809784
0.276653
0.276726
0.128372
0.127631
0.790180
0.809687
0.658924
0.127721
0.790857
0.207926
0.150117
0.790145
0.127636
0.139254
0.127704
0.127692
0.790134
0.790177
0.790150
0.790857
0.140939
0.127611
0.789561
0.809749
0.789850
0.139254
0.139265
0.794069
0.127631
0.128372
0.127658
0.790177
0.790214
0.139267
0.789560
0.127721
0.128372
0.790037
0.139263
0.139257
0.790098
0.790857
0.127704
0.790202
0.127704
0.127704
0.139263
0.276726
0.790169
0.139233
0.127670
0.128372
0.127704
0.127701
0.139271
0.790853
0.129042
0.139254
0.127645
0.128372
0.790167
0.790007
0.139232
0.127721
0.789670
0.127692
0.128715
0.127704
0.139267
0.127704
0.127647
0.127701
0.790075
0.276726
0.139321
0.127631
0.134906
0.207926
0.790417
0.139257
0.790853
0.790075
0.127704
0.790857
0.139265
0.140939
0.789357
0.790857
0.139267
0.127708
0.139315
0.790177
0.790125
0.276726
0.790100
0.127647
0.790144
0.790126
0.127701
0.790126
0.807914
0.199670
0.127704
0.127634
0.127658
0.127704
0.686912
0.127631
0.139257
0.140939
0.139263
0.809471
0.790175
0.790102
0.790037
0.808881
0.790150
0.127660
0.790183
0.139263
0.139267
0.789561
0.127660
0.127660
0.790117
0.140939
0.139267
0.790857
0.127704
0.139257
0.127715
0.139257
0.127631
0.127704
0.790164
0.127670
0.127647
0.790061
0.139232
0.127708
0.790163
0.127631
0.139257
0.128715
0.790068
0.790200
0.139254
0.127692
0.139257
0.127611
0.790183
0.139254
0.150006
0.139247
0.134791
0.276633
0.809721
0.127701
0.127631
0.139257
0.127683
0.127677
0.127656
0.127647
0.127660
0.139265
0.139321
0.750572
0.139315
0.790131
0.790249
0.134906
0.128372
0.139315
0.127692
0.127658
0.127658
0.127701
0.127611
0.127634
0.127704
0.790226
0.127658
0.127704
0.208024
0.127692
0.127704
0.790208
0.139254
0.127708
0.790179
0.127721
0.790222
0.139257
0.790198
0.139265
0.790417
0.764883
0.127708
0.139267
0.790176
0.127647
0.790200
0.139321
0.790126
0.139267
0.790106
0.276726
0.790125
0.790136
0.127704
0.127660
0.127704
0.127636
0.789465
0.127704
0.127704
0.809784
0.139263
0.790215
0.207926
0.139257
0.139242
0.127611
0.139257
0.139263
0.809745
0.790176
0.790059
0.127647
0.127658
0.127889
0.139267
0.127703
0.686912
0.139319
0.127704
0.790226
0.790206
0.790183
0.127670
0.794069
0.139263
0.139234
0.139242
0.139321
0.127660
0.139244
0.127708
0.127704
0.128372
0.127636
0.127670
0.789561
0.127704
0.139267
0.139267
0.276797
0.127692
0.809758
0.790131
0.139254
0.796543
0.474186
0.809784
0.127645
0.276726
0.789800
0.127701
0.139242
0.764883
0.127658
0.127645
0.127704
0.790857
0.127683
0.127658
0.790099
0.790127
0.139263
0.790199
0.139271
0.790125
0.139271
0.276726
0.139254
0.127677
0.127670
0.790226
0.127645
0.127647
0.809721
0.127660
0.790179
0.790178
0.794409
0.127660
0.127631
0.790099
0.139271
0.127647
0.128715
0.139257
0.127703
0.790853
0.127701
0.790107
0.134791
0.127683
0.790226
0.139257
0.276726
0.790160
0.790177
0.474186
0.139257
0.127636
0.790177
0.790223
0.789493
0.192215
0.790857
0.790186
0.276638
0.127708
0.790177
0.192215
0.127647
0.139242
0.127721
0.686912
0.127658
0.790857
0.140939
0.139271
0.127721
0.127647
0.139271
0.128715
0.207949
0.139254
0.781078
0.139257
0.127704
0.127658
0.790131
0.276728
0.790220
0.790166
0.139267
0.127677
0.127631
0.127677
0.790064
0.139244
0.139267
0.127704
0.127683
0.790244
0.140939
0.127658
0.139319
0.790211
0.127643
0.127658
0.127634
0.139233
0.139257
0.139254
0.790857
0.128372
0.139265
0.790125
0.139319
0.474186
0.276740
0.127647
0.128715
0.790857
0.139267
0.790857
0.276726
0.790075
0.139254
0.315363
0.790125
0.127660
0.139315
0.139242
0.789357
0.139257
0.139244
0.127670
0.127631
0.127658
0.790176
0.129042
0.127660
0.790180
0.127670
0.809696
0.790177
0.276726
0.207943
0.139254
0.139254
0.127660
0.139321
0.790177
0.127670
0.207926
0.127721
0.790857
0.208086
0.139242
0.139329
0.276726
0.764883
0.139263
0.790857
0.790125
0.127704
0.127692
0.192215
0.139265
0.790205
0.789357
0.790857
0.139247
0.139263
0.127631
0.139257
0.790177
0.207943
0.139267
0.128715
0.139315
0.127708
0.139267
0.139263
0.276726
0.127704
0.127704
0.790131
0.127658
0.127643
0.790197
0.790239
0.127704
0.311588
0.139254
0.139326
0.790105
0.790061
0.127643
0.139265
0.794678
0.128372
0.139242
0.127677
0.127647
0.139232
0.790225
0.790177
0.127715
0.790177
0.208024
0.127704
0.790106
0.127670
0.127708
0.789967
0.127683
0.790075
0.790223
0.139315
0.790177
0.276726
0.790853
0.127683
0.139257
0.790177
0.789652
0.139254
0.127611
0.127674
0.790133
0.127656
0.139263
0.790092
0.139325
0.128372
0.139267
0.790163
0.128372
0.127643
0.276726
0.127721
0.790091
0.790149
0.127703
0.139263
0.127645
0.790262
0.127658
0.128372
0.192215
0.127889
0.127721
0.127660
0.207926
0.139244
0.127660
0.127703
0.139263
0.134906
0.139267
0.790223
0.790197
0.789406
0.276605
0.127704
0.790070
0.192215
0.139267
0.199670
0.127636
0.750572
0.790206
0.127721
0.790857
0.128372
0.127643
0.129042
0.790198
0.139315
0.127670
0.207926
0.127704
0.139247
0.128372
0.789878
0.139325
0.207949
0.127704
0.127692
0.790204
0.783582
0.276726
0.127889
0.127645
0.139234
0.127704
0.139257
0.127721
0.139267
0.139265
0.139263
0.134791
0.139267
0.127645
0.789561
0.790129
0.790206
0.809088
0.139271
0.790067
0.127647
0.127660
0.140939
0.127721
0.139257
0.276726
0.790076
0.139325
0.790147
0.790206
0.139267
0.208024
0.127704
0.207926
0.139326
0.139315
0.127643
0.139217
0.790167
0.790857
0.139254
0.790134
0.139263
0.790165
0.790145
0.139234
0.790857
0.127692
0.139257
0.790165
0.127683
0.127658
0.127658
0.790226
0.156667
0.127704
0.276726
0.276726
0.127701
0.139319
0.127704
0.139263
0.790169
0.790131
0.790064
0.134791
0.139254
0.315363
0.790182
0.139265
0.139254
0.127658
0.139234
0.139232
0.127721
0.276726
0.127701
0.127674
0.807356
0.790223
0.789357
0.790223
0.790223
0.139321
0.139257
0.127643
0.127670
0.139263
0.156667
0.127660
0.789331
0.128372
0.276726
0.128372
0.150117
0.139263
0.790204
0.139257
0.790857
0.207926
0.790857
0.127643
0.139263
0.139257
0.139254
0.139254
0.139267
0.134791
0.127704
0.127634
0.134791
0.139232
0.139254
0.139265
0.139267
0.789774
0.207823
0.127704
0.127634
0.127701
0.134906
0.127636
0.208024
0.790180
0.790176
0.790091
0.139254
0.790262
0.139257
0.790166
0.790177
0.790083
0.127701
0.127889
0.127721
0.127670
0.276711
0.139257
0.139263
0.139257
0.127708
0.150006
0.127645
0.790131
0.150117
0.139326
0.127692
0.790222
0.790183
0.127631
0.139263
0.139254
0.127677
0.127658
0.127721
0.139271
0.790149
0.790857
0.790160
0.790175
0.809687
0.139244
0.207926
0.139326
0.790189
0.127658
0.790177
0.139315
0.790105
0.127701
0.127658
0.790199
0.127660
0.139267
0.128372
0.764883
0.794915
0.139267
0.139265
0.128372
0.127683
0.127692
0.128372
0.789978
0.127683
0.139233
0.207926
0.127701
0.127611
0.127692
0.790125
0.156667
0.139263
0.127647
0.474186
0.790223
0.127636
0.127683
0.127611
0.139233
0.127704
0.474186
0.276726
0.129042
0.139319
0.128372
0.127721
0.790067
0.127677
0.790007
0.139254
0.139263
0.127636
0.127692
0.139325
0.139263
0.139267
0.139247
0.790112
0.127703
0.127670
0.276726
0.127704
0.127889
0.790176
0.208024
0.127704
0.790131
0.276726
0.139267
0.127647
0.139254
0.127721
0.127704
0.790206
0.790177
0.127658
0.474186
0.139257
0.127631
0.127656
0.790188
0.139315
0.127670
0.139325
0.790098
0.129042
0.139263
0.790083
0.790177
0.790064
0.790168
0.790138
0.789407
0.276726
0.127645
0.134906
0.139242
0.128715
0.703052
0.790177
0.139254
0.139254
0.789799
0.790266
0.127704
0.139319
0.276710
0.139326
0.127704
0.127704
0.127704
0.127656
0.127667
0.128372
0.790101
0.139247
0.127701
0.790417
0.127701
0.127701
0.792142
0.139315
0.139315
0.474186
0.127704
0.127647
0.790166
0.139267
0.790131
0.790160
0.139257
0.276726
0.790177
0.686912
0.789960
0.790125
0.127683
0.139267
0.276728
0.790853
0.127660
0.790168
0.139254
0.139254
0.139217
0.790857
0.127670
0.208024
0.127683
0.139267
0.276726
0.790177
0.127708
0.686912
0.139233
0.139244
0.128372
0.127708
0.790200
0.139254
0.790146
0.790062
0.807588
0.128372
0.127704
0.127645
0.139233
0.790224
0.139263
0.790092
0.790125
0.139267
0.139263
0.276726
0.127670
0.127692
0.127645
0.790169
0.139329
0.790176
0.790177
0.127658
0.127721
0.207926
0.790129
0.127636
0.127704
0.790139
0.139267
0.127658
0.127683
0.790223
0.139257
0.139315
0.139267
0.139263
0.759932
0.127704
0.127683
0.127704
0.127704
0.207926
0.127683
0.139217
0.127631
0.790177
0.790163
0.127704
0.127704
0.139257
0.790182
0.790077
0.127636
0.127647
0.276726
0.127643
0.790119
0.129042
0.790115
0.127611
0.129042
0.139257
0.790177
0.127660
0.127670
0.139267
0.139325
0.139267
0.127670
0.127660
0.790129
0.127667
0.789846
0.276681
0.127660
0.127647
0.127683
0.127677
0.789483
0.127660
0.790204
0.156667
0.139247
0.790098
0.127721
0.127670
0.139326
0.127704
0.790177
0.127708
0.139244
0.789800
0.127677
0.139271
0.127658
0.127647
0.790156
0.139267
0.127631
0.790206
0.809696
0.474186
0.792751
0.127645
0.127703
0.809746
0.139234
0.790004
0.127701
0.127670
0.790773
0.790150
0.139232
0.790853
0.127704
0.139257
0.127692
0.139257
0.128715
0.127647
0.139254
0.139254
0.789641
0.139254
0.139257
0.207926
0.139254
0.139267
0.790137
0.790201
0.276726
0.127647
0.127670
0.790177
0.139257
0.127645
0.127692
0.127683
0.139267
0.790853
0.139271
0.128372
0.790857
0.790249
0.794069
0.127660
0.790099
0.790218
0.790857
0.139234
0.139257
0.199670
0.127631
0.139319
0.127704
0.207823
0.207823
0.139263
0.127677
0.789641
0.790101
0.127708
0.127703
0.276740
0.127701
0.139254
0.139263
0.790149
0.790104
0.790206
0.139244
0.127708
0.127660
0.139267
0.127701
0.276726
0.139242
0.128715
0.789967
0.790177
0.276799
0.139244
0.134791
0.127636
0.127636
0.127701
0.139254
0.127704
0.139257
0.139257
0.276726
0.127656
0.809768
0.127683
0.790175
0.139247
0.134791
0.139267
0.140939
0.139326
0.139267
0.150006
0.127647
0.790206
0.127656
0.127645
0.127645
0.790177
0.139254
0.128715
0.789465
0.808106
0.789465
0.139234
0.790196
0.128372
0.276726
0.127670
0.139257
0.127692
0.127643
0.790206
0.127643
0.790083
0.128372
0.127708
0.809797
0.790223
0.790857
0.139233
0.276726
0.790127
0.790176
0.127703
0.139233
0.127647
0.139315
0.790201
0.127692
0.790177
0.127643
0.276710
0.790156
0.127708
0.790135
0.127677
0.139321
0.276934
0.276726
0.150117
0.790177
0.790213
0.134791
0.790125
0.790202
0.790857
0.127631
0.127667
0.207943
0.127667
0.139257
0.790177
0.139257
0.127721
0.764883
0.150006
0.790106
0.139263
0.139267
0.127708
0.127631
0.128372
0.276726
0.127703
0.134791
0.790226
0.127645
0.790076
0.127660
0.207926
0.139329
0.127704
0.139244
0.276633
0.139263
0.139234
0.139242
0.139321
0.139233
0.790202
0.790857
0.139257
0.759932
0.790195
0.127701
0.139319
0.790177
0.139254
0.790206
0.139326
0.759932
0.139234
0.139234
0.139321
0.127692
0.127715
0.127660
0.127634
0.127704
0.790211
0.790857
0.199670
0.127660
0.139257
0.127701
0.790145
0.790146
0.139267
0.276661
0.127692
0.150117
0.127683
0.127683
0.127704
0.127674
0.139263
0.790122
0.276726
0.127631
0.139329
0.127647
0.790144
0.127708
0.139247
0.139244
0.139325
0.127645
0.128372
0.127677
0.790125
0.474186
0.790177
0.790213
0.790177
0.127670
0.128372
0.127701
0.127660
0.139254
0.790177
0.127660
0.127645
0.127677
0.790857
0.139254
0.127660
0.790187
0.790417
0.156667
0.790182
0.127647
0.127704
0.807914
0.127611
0.790113
0.127692
0.790188
0.139265
0.150006
0.127660
0.150006
0.139325
0.790177
0.474186
0.139329
0.127701
0.139267
0.300314
0.790244
0.127634
0.127692
0.790177
0.127701
0.140939
0.207943
0.127636
0.156667
0.139267
0.127692
0.790857
0.127677
0.127701
0.790068
0.127721
0.128715
0.790083
0.788806
0.127721
0.686912
0.139325
0.790238
0.790211
0.790106
0.127721
0.794678
0.127636
0.789999
0.139247
0.808881
0.139247
0.127647
0.128715
0.790249
0.127660
0.790111
0.127658
0.127692
0.139315
0.127889
0.139265
0.140939
0.139263
0.139267
0.790134
0.792751
0.139244
0.127889
0.790085
0.127658
0.790206
0.790222
0.790125
0.790153
0.276605
0.127658
0.276682
0.127670
0.790115
0.127701
0.127656
0.790129
0.127701
0.790139
0.790175
0.139257
0.134906
0.127611
0.790180
0.207949
0.127703
0.127701
0.139271
0.139267
0.127643
0.139263
0.127708
0.139267
0.127647
0.790857
0.127715
0.127692
0.127715
0.276790
0.134791
0.139257
0.127636
0.127647
0.127721
0.127645
0.127721
0.127704
0.790173
0.790183
0.276726
0.139263
0.127683
0.790144
0.791313
0.127701
0.139315
0.474186
0.139254
0.127721
0.139254
0.129042
0.790150
0.790177
0.276682
0.127704
0.790179
0.134791
0.128372
0.790154
0.790223
0.790154
0.127670
0.127692
0.139233
0.128372
0.127704
0.139254
0.127670
0.134791
0.127721
0.139267
0.127692
0.686912
0.140939
0.139271
0.139254
0.128372
0.139254
0.276747
0.790192
0.790149
0.127701
0.139267
0.790115
0.127704
0.139271
0.790225
0.790158
0.139267
0.790177
0.794678
0.129042
0.127660
0.127889
0.128372
0.127701
0.139325
0.127704
0.127708
0.127631
0.790083
0.128372
0.790857
0.127692
0.790167
0.789561
0.127660
0.127658
0.790200
0.315363
0.207949
0.790099
0.127701
0.139326
0.139257
0.127647
0.790100
0.790177
0.127660
0.139232
0.807914
0.150006
0.139263
0.790177
0.139263
0.127660
0.127701
0.790059
0.139267
0.790127
0.127704
0.127670
0.789591
0.312732
0.127692
0.150006
0.127658
0.790218
0.139271
0.128372
0.790177
0.127670
0.139267
0.127667
0.150006
0.127704
0.790105
0.127658
0.127670
0.790068
0.129042
0.139263
0.790127
0.127703
0.127701
0.139263
0.139271
0.139321
0.127701
0.127721
0.790177
0.139254
0.139242
0.127677
0.139263
0.798535
0.790099
0.139325
0.127658
0.139263
0.127677
0.139254
0.809733
0.276695
0.139233
0.134906
0.128372
0.127647
0.127692
0.139329
0.128715
0.127658
0.139247
0.276726
0.139263
0.127701
0.790144
0.790136
0.127631
0.790223
0.790179
0.127647
0.792142
0.790102
0.128372
0.276726
0.127631
0.790107
0.208024
0.127647
0.127631
0.139326
0.790075
0.127715
0.127658
0.790177
0.703052
0.276726
0.207926
0.789344
0.790125
0.276726
0.790167
0.139233
0.789331
0.139257
0.790068
0.276647
0.790122
0.127660
0.139321
0.790105
0.128372
0.790239
0.139319
0.139263
0.127658
0.139267
0.139234
0.139232
0.790102
0.139325
0.139329
0.790105
0.790125
0.139321
0.790127
0.276741
0.127703
0.127704
0.139234
0.790417
0.127658
0.790145
0.127703
0.139263
0.127704
0.790106
0.127692
0.127721
0.127674
0.156667
0.790125
0.139254
0.127643
0.790218
0.139326
0.790091
0.139325
0.127683
0.276726
0.790085
0.790177
0.139326
0.150006
0.150006
0.127660
0.790062
0.809758
0.128372
0.128372
0.139321
0.790166
0.790857
0.139263
0.809746
0.127708
0.127674
0.789594
0.127721
0.139267
0.127692
0.127647
0.127674
0.789366
0.276661
0.790244
0.208024
0.127670
0.139257
0.127708
0.789938
0.790857
0.127647
0.139244
0.139254
0.790106
0.127647
0.139326
0.790098
0.127704
0.150117
0.127701
0.127674
0.276797
0.139257
0.790064
0.128372
0.128372
0.127658
0.790139
0.790205
0.127660
0.127704
0.127670
0.127704
0.139217
0.790213
0.790177
0.139325
0.790177
0.127636
0.127670
0.790077
0.790177
0.790169
0.127704
0.207949
0.276726
0.790119
0.276726
0.127636
0.789927
0.127660
0.139247
0.139271
0.789331
0.129042
0.129042
0.790180
0.127704
0.790111
0.139254
0.790201
0.315363
0.790857
0.139242
0.127701
0.127660
0.139271
0.139267
0.790198
0.127611
0.139257
0.139267
0.127683
0.127721
0.127701
0.790154
0.790191
0.276726
0.127636
0.127647
0.315363
0.311588
0.790125
0.127670
0.790068
0.127647
0.790773
0.750572
0.127677
0.790083
0.127660
0.128715
0.790224
0.139257
0.790857
0.127683
0.128372
0.127674
0.139267
0.127692
0.127670
0.128372
0.790857
0.140939
0.790180
0.139257
0.790068
0.474186
0.790125
0.139263
0.139263
0.150006
0.139271
0.139254
0.127721
0.128372
0.790857
0.790007
0.790857
0.127660
0.139257
0.139244
0.127701
0.139233
0.139263
0.128372
0.127647
0.139265
0.127660
0.127701
0.789938
0.139263
0.139263
0.127660
0.790040
0.127721
0.127677
0.139217
0.276633
0.128372
0.790187
0.127704
0.127701
0.139254
0.127636
0.128372
0.139257
0.790135
0.127701
0.800628
0.140939
0.790196
0.790857
0.139265
0.127692
0.139232
0.128372
0.790177
0.127677
0.127660
0.139257
0.127677
0.127889
0.127703
0.127721
0.139257
0.790173
0.207926
0.790188
0.276726
0.139263
0.127611
0.139244
0.207823
0.127701
0.276797
0.786887
0.127645
0.789967
0.199670
0.127692
0.127658
0.139254
0.790177
