0.787513
0.787633
0.787805
0.127857
0.127865
0.209009
0.209386
0.127891
0.138858
0.127803
0.138823
0.127841
0.138847
0.138823
0.127891
0.788374
0.787812
0.787681
0.808865
0.127884
0.138858
0.127841
0.127789
0.127794
0.787781
0.208988
0.127868
0.176019
0.138853
0.138847
0.138836
0.127907
0.127876
0.787570
0.127868
0.127838
0.138850
0.127806
0.128337
0.127838
0.127907
0.787720
0.787681
0.787671
0.127857
0.127907
0.369877
0.127789
0.799816
0.787853
0.788176
0.787657
0.127866
0.208876
0.275380
0.787587
0.138847
0.787155
0.127794
0.802503
0.138822
0.138823
0.127841
0.808997
0.275328
0.787800
0.808986
0.138858
0.127806
0.138875
0.127871
0.275328
0.127871
0.275328
0.138823
0.138858
0.127865
0.132473
0.138858
0.127806
0.127865
0.127794
0.809012
0.127809
0.127809
0.138850
0.138823
0.799816
0.788374
0.127803
0.127809
0.788374
0.127849
0.787805
0.808527
0.138889
0.787631
0.787644
0.138847
0.134411
0.789059
0.138858
0.127841
0.127907
0.127891
0.787668
0.787161
0.134411
0.127806
0.138889
0.787681
0.127868
0.127806
0.787681
0.127838
0.128337
0.138822
0.208998
0.128337
0.127865
0.717962
0.127855
0.127891
0.138823
0.809012
0.138875
0.138916
0.787751
0.788374
0.138905
0.138900
0.138892
0.787760
0.787780
0.138839
0.787766
0.127958
0.127907
0.369877
0.127891
0.138892
0.132473
0.275355
0.138839
0.787692
0.275365
0.138900
0.275328
0.787668
0.787805
0.138847
0.138888
0.787681
0.127907
0.138836
0.808903
0.138822
0.127789
0.788374
0.127868
0.206073
0.127907
0.209386
0.134411
0.127815
0.138853
0.127803
0.787460
0.787765
0.127809
0.787681
0.435282
0.127891
0.127793
0.127838
0.138853
0.138823
0.138847
0.128337
0.275328
0.127789
0.127891
0.208980
0.275328
0.138900
0.138888
0.127891
0.138795
0.787386
0.208998
0.787662
0.127806
0.788374
0.134411
0.138853
0.275408
0.138795
0.138828
0.787668
0.295871
0.138875
0.787736
0.138850
0.127809
0.128337
0.127886
0.127855
0.127891
0.127803
0.787646
0.128337
0.127802
0.209009
0.789762
0.185979
0.138864
0.127891
0.209009
0.275328
0.138888
0.127855
0.127891
0.787780
0.127849
0.127871
0.138884
0.128337
0.138914
0.138823
0.275328
0.788374
0.127803
0.275367
0.127866
0.787698
0.127809
0.787736
0.132797
0.138823
0.138888
0.788374
0.127803
0.134411
0.138905
0.138858
0.787668
0.138888
0.127876
0.787738
0.127838
0.127891
0.808951
0.127789
0.787690
0.787668
0.138900
0.808977
0.127794
0.787737
0.127849
0.127794
0.138847
0.787554
0.138823
0.127891
0.176019
0.127907
0.127865
0.127868
0.132473
0.127794
0.138839
0.138888
0.138875
0.787679
0.787752
0.787662
0.138795
0.787288
0.138823
0.138823
0.127876
0.138900
0.127803
0.128337
0.127876
0.138914
0.132473
0.787794
0.127907
0.208876
0.127866
0.127806
0.138888
0.787603
0.138814
0.127907
0.789059
0.127866
0.127865
0.128337
0.138847
0.788242
0.787695
0.138853
0.127865
0.787765
0.138888
0.127866
0.787681
0.788374
0.127806
0.127841
0.127794
0.208980
0.138900
0.787679
0.127855
0.787681
0.787700
0.787155
0.206073
0.127794
0.138828
0.128337
0.138858
0.127891
0.138916
0.127841
0.127803
0.787789
0.138836
0.127907
0.127793
0.208848
0.275328
0.127802
0.275328
0.138847
0.127849
0.127789
0.127855
0.127882
0.787681
0.138875
0.127838
0.127865
0.138868
0.127907
0.127802
0.275235
0.138839
0.275328
0.275314
0.138847
0.127865
0.787902
0.138853
0.132473
0.787770
0.787642
0.127794
0.468273
0.127803
0.134411
0.127789
0.127809
0.787191
0.787744
0.275328
0.138828
0.138828
0.787760
0.787810
0.127865
0.138868
0.787805
0.788374
0.138875
0.127803
0.138875
0.787723
0.127803
0.787719
0.209009
0.138823
0.787723
0.138888
0.787810
0.138839
0.788374
0.127838
0.138823
0.127838
0.138900
0.717962
0.138889
0.787759
0.127868
0.516866
0.138916
0.206073
0.138875
0.787554
0.275303
0.128337
0.127789
0.138823
0.787794
0.138822
0.138850
0.127868
0.138853
0.138875
0.138814
0.127815
0.127803
0.138875
0.787681
0.787693
0.138875
0.787681
0.787718
0.208876
0.787692
0.787720
0.138823
0.787668
0.796165
0.127849
0.787629
0.788374
0.127803
0.138814
0.275328
0.138884
0.787673
0.127803
0.127806
0.787902
0.138847
0.127815
0.127803
0.128021
0.787902
0.127871
0.127865
0.787732
0.138875
0.138875
0.127891
0.787780
0.138836
0.127802
0.138823
0.138868
0.127806
0.788374
0.787788
0.787333
0.127794
0.787668
0.787777
0.275328
0.127849
0.127793
0.138853
0.138823
0.127855
0.127838
0.138858
0.127868
0.138888
0.787765
0.127907
0.138875
0.275328
0.132473
0.138850
0.717962
0.138823
0.127891
0.138795
0.787780
0.787770
0.185979
0.787752
0.138868
0.275328
0.128337
0.127884
0.138858
0.138823
0.138823
0.208876
0.787738
0.128337
0.127838
0.127794
0.127803
0.127793
0.138892
0.127789
0.275328
0.132473
0.138875
0.132797
0.138858
0.138875
0.787695
0.138814
0.127958
0.787668
0.176019
0.275328
0.134411
0.275328
0.127855
0.787704
0.127806
0.127789
0.138889
0.138875
0.127866
0.787681
0.787721
0.787710
0.127849
0.138823
0.717962
0.127815
0.771831
0.127891
0.138822
0.138875
0.127884
0.208876
0.787753
0.127803
0.787805
0.809060
0.138858
0.788374
0.787714
0.127841
0.787681
0.138900
0.138868
0.787679
0.208980
0.138905
0.788374
0.787681
0.127891
0.127866
0.787681
0.127855
0.787780
0.176019
0.127803
0.787668
0.138858
0.138888
0.127806
0.275328
0.787737
0.275328
0.127806
0.787750
0.275406
0.127849
0.127891
0.127884
0.138839
0.138889
0.787690
0.138823
0.138847
0.788149
0.127907
0.138847
0.138850
0.138900
0.208980
0.138914
0.127838
0.788374
0.787793
0.138847
0.787679
0.138864
0.127865
0.138868
0.787720
0.138858
0.127857
0.787667
0.127865
0.127891
0.208998
0.138828
0.127876
0.128021
0.787752
0.127794
0.787731
0.127794
0.275660
0.787587
0.127907
0.275328
0.787191
0.275328
0.138914
0.127806
0.128337
0.138847
0.127809
0.127865
0.209386
0.787694
0.127794
0.127806
0.787731
0.138888
0.138875
0.208876
0.138823
0.127884
0.127871
0.138868
0.128021
0.787681
0.138823
0.787667
0.787633
0.787264
0.128337
0.138905
0.138828
0.127803
0.787668
0.127789
0.128337
0.138888
0.138823
0.138823
0.138888
0.138823
0.787662
0.787457
0.127802
0.787681
0.788374
0.787505
0.787698
0.787710
0.787115
0.127891
0.127866
0.132797
0.127838
0.127809
0.127868
0.127907
0.787737
0.127838
0.787634
0.787794
0.127857
0.275328
0.208848
0.208848
0.808527
0.788085
0.138916
0.127891
0.787752
0.127891
0.127841
0.127907
0.138875
0.275386
0.138836
0.787513
0.127907
0.788176
0.787681
0.127838
0.275328
0.208988
0.138888
0.138858
0.772338
0.787777
0.772338
0.138875
0.138884
0.138823
0.138814
0.127886
0.127907
0.127803
0.127857
0.788374
0.128337
0.138888
0.787642
0.808865
0.127806
0.138823
0.787681
0.127849
0.209009
0.127849
0.127958
0.787620
0.127794
0.127891
0.127886
0.275328
0.787776
0.275328
0.127849
0.787732
0.275328
0.138875
0.275328
0.127806
0.787712
0.127855
0.275328
0.138858
0.787681
0.409129
0.127803
0.275301
0.128337
0.127855
0.138839
0.127891
0.275328
0.138905
0.787752
0.127838
0.127803
0.369877
0.138875
0.128337
0.208980
0.127806
0.409129
0.127865
0.787681
0.138847
0.808951
0.127789
0.787668
0.138888
0.127868
0.787123
0.788242
0.787654
0.275328
0.138868
0.138914
0.127891
0.138875
0.127866
0.138875
0.787722
0.185979
0.127849
0.787681
0.787681
0.787788
0.787681
0.185979
0.138875
0.138850
0.127803
0.127841
0.128337
0.127866
0.788242
0.788085
0.176019
0.127793
0.127789
0.127855
0.787805
0.127838
0.787719
0.787718
0.128337
0.787752
0.787681
0.127803
0.787701
0.127886
0.127841
0.787681
0.127865
0.275328
0.138850
0.808935
0.127794
0.138875
0.788085
0.127789
0.208988
0.275303
0.138858
0.138822
0.787715
0.787711
0.275328
0.127806
0.138823
0.796165
0.127806
0.127806
0.787740
0.127891
0.787587
0.138875
0.127876
0.127857
0.787681
0.127865
0.128337
0.275344
0.127793
0.138853
0.138858
0.127803
0.138858
0.127865
0.788374
0.127802
0.208848
0.788374
0.127838
0.787681
0.138914
0.127794
0.787681
0.127789
0.138858
0.787436
0.787760
0.787781
0.127803
0.138795
0.127803
0.787500
0.138858
0.275252
0.127803
0.787708
0.127806
0.787777
0.435282
0.788085
0.787793
0.806441
0.787480
0.787668
0.138884
0.787692
0.127884
0.787805
0.275396
0.127868
0.138889
0.127876
0.796165
0.127838
0.127857
0.788374
0.138858
0.787751
0.787737
0.787788
0.138858
0.127857
0.787793
0.138905
0.787794
0.209386
0.717962
0.787681
0.787680
0.127876
0.138888
0.138814
0.275328
0.127907
0.787788
0.138875
0.127838
0.787454
0.787793
0.138823
0.138889
0.809076
0.808951
0.772338
0.138888
0.138823
0.787710
0.127794
0.787800
0.127891
0.127849
0.138875
0.127802
0.127803
0.127855
0.787711
0.127865
0.138900
0.138853
0.138888
0.275381
0.127855
0.127794
0.127857
0.787902
0.127803
0.127806
0.138795
0.127882
0.533216
0.128337
0.132473
0.787712
0.127809
0.138823
0.127865
0.138875
0.127865
0.787902
0.787756
0.128337
0.127871
0.209009
0.788374
0.787691
0.128337
0.787629
0.295871
0.127789
0.787721
0.275328
0.787751
0.127789
0.208876
0.138875
0.127891
0.138905
0.127806
0.138850
0.127806
0.127907
0.127789
0.127803
0.138875
0.138875
0.138875
0.138850
0.787715
0.138795
0.787617
0.127806
0.787760
0.208848
0.787718
0.808971
0.127891
0.128337
0.787720
0.127809
0.787732
0.127803
0.127803
0.275328
0.138864
0.127958
0.138884
0.138889
0.766570
0.127865
0.128337
0.128337
0.138875
0.127803
0.138916
0.127958
0.138889
0.176019
0.127803
0.127803
0.787657
0.127802
0.128337
0.127855
0.369877
0.787513
0.127868
0.787681
0.127794
0.787688
0.209009
0.185979
0.127815
0.138847
0.138888
0.788374
0.127855
0.127794
0.127855
0.787759
0.127789
0.138823
0.209386
0.127806
0.138858
0.208980
0.127809
0.138823
0.138875
0.787805
0.127806
0.209009
0.138905
0.802503
0.127841
0.127803
0.787719
0.127794
0.275328
0.127815
0.275386
0.787681
0.138858
0.127806
0.127841
0.275328
0.127803
0.127891
0.208848
0.787624
0.793112
0.788374
0.127803
0.127794
0.138875
0.788374
0.127806
0.138888
0.808865
0.787718
0.138814
0.127803
0.138823
0.138888
0.787681
0.790561
0.138905
0.127855
0.787781
0.138900
0.138875
0.127841
0.275328
0.787673
0.508690
0.127891
0.208988
0.128337
0.138850
0.127794
0.787799
0.127868
0.138875
0.369877
0.138875
0.787805
0.127958
0.138868
0.787699
0.787789
0.787681
0.128337
0.788374
0.127841
0.138823
0.127882
0.409129
0.127789
0.787793
0.275328
0.787681
0.127793
0.127803
0.127838
0.787810
0.127891
0.275328
0.138823
0.127866
0.127838
0.138853
0.127865
0.128337
0.138858
0.787554
0.793588
0.138823
0.138916
0.127865
0.788374
0.787690
0.787752
0.127803
0.787780
0.127815
0.138888
0.787688
0.787657
0.275328
0.138875
0.787752
0.138875
0.138916
0.127809
0.127803
0.787505
0.128021
0.127794
0.787668
0.127809
0.787721
0.127865
0.138847
0.127809
0.127806
0.127876
0.208988
0.134411
0.787780
0.787620
0.127841
0.788374
0.808669
0.132473
0.138888
0.787692
0.127866
0.132473
0.185979
0.138868
0.127891
0.787765
0.138875
0.127865
0.787654
0.138795
0.208998
0.209009
0.468273
0.787673
0.209009
0.138814
0.127803
0.787281
0.128337
0.787597
0.138875
0.127884
0.138889
0.127802
0.787710
0.127806
0.138875
0.138823
0.185979
0.787794
0.127882
0.127865
0.138888
0.208988
0.127891
0.127884
0.127806
0.127855
0.127855
0.138839
0.787749
0.127865
0.176019
0.138828
0.127809
0.138847
0.127871
0.127865
0.127838
0.127891
0.127803
0.787737
0.127794
0.128337
0.787760
0.722451
0.138836
0.275328
0.138889
0.787751
0.127866
0.138875
0.127809
0.138814
0.127794
0.127841
0.138905
0.787681
0.127907
0.787668
0.809106
0.138864
0.788374
0.127803
0.787668
0.787719
0.138822
0.787673
0.138858
0.787681
0.138888
0.127865
0.138875
0.127793
0.138828
0.138888
0.787657
0.787699
0.138823
0.717962
0.185979
0.138875
0.788242
0.127789
0.127806
0.275328
0.788374
0.138884
0.275328
0.127849
0.127849
0.127803
0.127907
0.127891
0.134411
0.787770
0.127866
0.138875
0.128337
0.275328
0.138850
0.802503
0.127865
0.138858
0.787794
0.138888
0.787739
0.787349
0.787617
0.128337
0.787744
0.787770
0.127865
0.787712
0.138858
0.208988
0.208876
0.138823
0.127865
0.127876
0.127841
0.138888
0.127868
0.138823
0.809088
0.132473
0.787740
0.127789
0.787644
0.138875
0.275430
0.787191
0.138892
0.787679
0.127838
0.787712
0.138822
0.127907
0.787680
0.275328
0.127809
0.275328
0.127866
0.127838
0.808669
0.275244
0.787681
0.787799
0.138814
0.127857
0.127857
0.127886
0.208998
0.787405
0.275328
0.127838
0.127891
0.127958
0.138875
0.787668
0.128337
0.138888
0.275365
0.787681
0.127806
0.369877
0.787700
0.788176
0.127789
0.128337
0.209386
0.127803
0.138916
0.208988
0.138905
0.127907
0.127794
0.127806
0.138836
0.127876
0.127907
0.788374
0.138858
0.127803
0.127865
0.127857
0.138823
0.787668
0.127803
0.138847
0.209009
0.787681
0.138888
0.127802
0.138858
0.127838
0.275328
0.138795
0.138850
0.275386
0.127809
0.127958
0.138850
0.787249
0.138858
0.138875
0.138823
0.127891
0.127815
0.138823
0.138875
0.138850
0.127809
0.787740
0.127806
0.127803
0.127802
0.808977
0.787494
0.127865
0.787736
0.127789
0.127871
0.127891
0.127891
0.127803
0.138853
0.789807
0.787593
0.138836
0.275328
0.128337
0.209009
0.138888
0.208988
0.127794
0.138836
0.134411
0.127806
0.176019
0.787793
0.788374
0.138875
0.138889
0.552435
0.275328
0.127866
0.127794
0.138916
0.127865
0.787902
0.127802
0.138823
0.127882
0.787681
0.127841
0.127841
0.787668
0.127838
0.127891
0.787668
0.127794
0.138858
0.127891
0.788374
0.127803
0.127838
0.127907
0.275328
0.127884
0.127794
0.138888
0.134411
0.138905
0.128021
0.127838
0.138847
0.275367
0.138900
0.132797
0.127855
0.138823
0.138875
0.787780
0.138858
0.127857
0.127868
0.128337
0.127891
0.138864
0.127865
0.138888
0.127876
0.275328
0.138853
0.809015
0.138858
0.128337
0.208988
0.138889
0.127803
0.138823
0.788374
0.787668
0.138892
0.138847
0.787640
0.208848
0.127876
0.138892
0.127803
0.787681
0.127789
0.138858
0.208998
0.127802
0.787770
0.275365
0.127871
0.787799
0.127958
0.788176
0.127891
0.787267
0.138822
0.138822
0.138828
0.788374
0.138847
0.127857
0.138884
0.787597
0.138847
0.787810
0.138839
0.127815
0.787744
0.138823
0.787805
0.138916
0.127857
0.127868
0.127876
0.138875
0.127891
0.808935
0.275328
0.127802
0.787697
0.127806
0.787635
0.275328
0.127794
0.127838
0.138823
0.787805
0.127806
0.138823
0.788374
0.127876
0.127907
0.788648
0.787736
0.138795
0.138823
0.787597
0.138875
0.787681
0.208876
0.127793
0.127803
0.787668
0.127866
0.787780
0.127886
0.209009
0.787668
0.275363
0.787712
0.787715
0.209009
0.127855
0.127865
0.127907
0.787692
0.138875
0.127871
0.787712
0.787646
0.138900
0.127849
0.138875
0.127866
0.787752
0.138823
0.209009
0.127806
0.127803
0.127868
0.787794
0.127803
0.788374
0.127891
0.787789
0.127806
0.138892
0.127855
0.127806
0.787601
0.787662
0.127803
0.127838
0.127838
0.138875
0.127849
0.275328
0.138858
0.127891
0.127857
0.127789
0.808903
0.138850
0.127789
0.275363
0.209009
0.788374
0.127849
0.127882
0.275328
0.788085
0.787715
0.138892
0.127809
0.128021
0.209386
0.787754
0.808997
0.138888
0.127815
0.138858
0.138847
0.138875
0.127865
0.128021
0.787736
0.138823
0.127884
0.787191
0.132473
0.138795
0.127868
0.138900
0.788374
0.208980
0.138875
0.127841
0.127789
0.127868
0.127793
0.138888
0.127865
0.138822
0.127802
0.138875
0.138905
0.788085
0.176019
0.138858
0.275328
0.787633
0.138875
0.127841
0.787476
0.138828
0.787620
0.275328
0.787681
0.138884
0.208998
0.784639
0.787902
0.787513
0.787681
0.787751
0.127793
0.138858
0.787812
0.787509
0.134411
0.138875
0.787681
0.138823
0.787668
0.127789
0.787667
0.127803
0.127806
0.369877
0.127882
0.138916
0.138847
0.787654
0.788374
0.138853
0.788374
0.176019
0.138858
0.787662
0.138868
0.138900
0.717962
0.127789
0.127876
0.127849
0.127849
0.138823
0.206073
0.787770
0.127855
0.127891
0.127865
0.787681
0.128337
0.138888
0.787697
0.127907
0.127789
0.127865
0.127806
0.787631
0.138823
0.275328
0.787405
0.127789
0.127789
0.787691
0.138814
0.127855
0.127789
0.787755
0.138900
0.787636
0.787715
0.787505
0.127789
0.787667
0.127891
0.138875
0.784639
0.127793
0.134411
0.138888
0.128337
0.138888
0.132473
0.808946
0.138839
0.138875
0.127806
0.787242
0.127809
0.138858
0.788374
0.138850
0.138864
0.127886
0.787681
0.788242
0.127891
0.138858
0.275328
0.787148
0.127855
0.127794
0.127794
0.787681
0.127876
0.275328
0.138875
0.138875
0.138916
0.127849
0.127809
0.138905
0.787732
0.127794
0.787546
0.138892
0.138868
0.138853
0.138853
0.787681
0.138850
0.127806
0.138905
0.127809
0.127891
0.138858
0.138823
0.295871
0.138875
0.132797
0.134411
0.787698
0.127865
0.138888
0.138828
0.138858
0.127855
0.127907
0.788374
0.138888
0.138892
0.138850
0.138888
0.127803
0.275328
0.138864
0.127794
0.127891
0.127815
0.787494
0.787737
0.796165
0.138900
0.127789
0.128337
0.275328
0.127884
0.787755
0.127841
0.127803
0.127855
0.138875
0.138858
0.127891
0.808903
0.787674
0.138875
0.127855
0.138875
0.138875
0.127838
0.127855
0.788648
0.127841
0.788374
0.808916
0.208988
0.127865
0.127891
0.127838
0.185979
0.138858
0.127865
0.127849
0.208988
0.138823
0.787668
0.127809
0.127794
0.787249
0.127838
0.138795
0.787701
0.208876
0.127806
0.127789
0.138888
0.787729
0.128337
0.787677
0.138888
0.127838
0.127789
0.787766
0.127891
0.134411
0.138858
0.127865
0.787699
0.127907
0.127907
0.127841
0.787710
0.127789
0.127789
0.138884
0.127841
0.787712
0.138814
0.787737
0.127882
0.138823
0.127849
0.275328
0.787780
0.808948
0.787674
0.138888
0.127806
0.789762
0.127884
0.134411
0.787635
0.127838
0.127891
0.138822
0.788176
0.138916
0.127865
0.723675
0.717962
0.787681
0.127793
0.138875
0.787668
0.138814
0.787546
0.787631
0.787617
0.127806
0.787681
0.176019
0.127838
0.127868
0.787681
0.128021
0.788374
0.787638
0.138822
0.787668
0.138888
0.138875
0.787680
0.787703
0.787633
0.787672
0.788242
0.787668
0.138916
0.787681
0.127789
0.208998
0.275328
0.127891
0.127866
0.127841
0.787681
0.138875
0.787793
0.787673
0.809015
0.127891
0.787780
0.127849
0.127802
0.127855
0.787681
0.787681
0.787644
0.787681
0.275413
0.788176
0.787744
0.787780
0.127803
0.788242
0.134411
0.787286
0.208848
0.206073
0.208988
0.128337
0.127803
0.127855
0.127891
0.787597
0.127838
0.795823
0.127857
0.134411
0.138875
0.275324
0.127802
0.138875
0.127802
0.787788
0.787692
0.127865
0.127886
0.435282
0.787692
0.127789
0.208988
0.787681
0.275328
0.787476
0.127803
0.138858
0.127815
0.127789
0.138839
0.787694
0.809076
0.134411
0.127891
0.138868
0.138858
0.787668
0.787760
0.127803
0.138889
0.138888
0.138875
0.127794
0.134411
0.275328
0.127857
0.138905
0.787636
0.275328
0.808865
0.138823
0.787793
0.127803
0.128337
0.127841
0.787681
0.138889
0.127809
0.809060
0.138888
0.275244
0.787526
0.787740
0.787780
0.138858
0.138889
0.787751
0.127865
0.275408
0.138847
0.127803
0.138888
0.138875
0.127884
0.787634
0.787697
0.787115
0.138905
0.806718
0.808986
0.208988
0.127793
0.138823
0.787780
0.787794
0.127794
0.138823
0.128337
0.138850
0.787692
0.127868
0.127891
0.138875
0.275356
0.127865
0.275328
0.787767
0.787617
0.138889
0.138858
0.127886
0.787700
0.138875
0.128337
0.275328
0.127866
0.787685
0.127841
0.138875
0.127866
0.138850
0.127865
0.138875
0.787679
0.127794
0.138905
0.138839
0.132797
0.138864
0.787646
0.787701
0.787644
0.127891
0.128337
0.788374
0.138875
0.134411
0.793112
0.138905
0.138905
0.127865
0.771831
0.127803
0.808948
0.134411
0.127794
0.127838
0.787740
0.138888
0.787681
0.208998
0.787902
0.127891
0.127838
0.127876
0.127838
0.127868
0.138888
0.128337
0.138853
0.134411
0.138858
0.127865
0.787681
0.138858
0.138875
0.138900
0.127876
0.132797
0.127855
0.127876
0.787300
0.787620
0.787123
0.127806
0.208980
0.787701
0.787681
0.127803
0.127841
0.138916
0.127855
0.138858
0.127803
0.275328
0.787715
0.127907
0.127806
0.127849
0.128337
0.127841
0.788374
0.275384
0.127876
0.787667
0.787553
0.127838
0.787732
0.787191
0.127806
0.787788
0.127815
0.127857
0.127891
0.127882
0.788374
0.127838
0.127806
0.128337
0.275314
0.275233
0.787697
0.138858
0.275328
0.127857
0.127958
0.808906
0.138847
0.138828
0.787524
0.127865
0.138858
0.138828
0.789762
0.127806
0.127802
0.788374
0.127806
0.134411
0.138868
0.138814
0.787722
0.138847
0.787737
0.127803
0.138892
0.794441
0.127809
0.127884
0.787633
0.138875
0.128021
0.138814
0.127857
0.138828
0.787770
0.127794
0.138888
0.127789
0.138888
0.787793
0.138900
0.138864
0.138888
0.138875
0.787333
0.771831
0.138868
0.787750
0.127866
0.138795
0.138888
0.787668
0.138884
0.138823
0.127891
0.138916
0.127806
0.787732
0.127855
0.127841
0.275328
0.138888
0.138850
0.138889
0.208998
0.787697
0.787767
0.127803
0.138823
0.127849
0.127849
0.138914
0.787800
0.127794
0.541429
0.127841
0.127907
0.787668
0.138823
0.138888
0.127806
0.138839
0.127809
0.787692
0.127838
0.127803
0.138905
0.787695
0.127907
0.127849
0.787685
0.138884
0.138889
0.127882
0.128337
0.138836
0.208876
0.787691
0.787682
0.788374
0.128337
0.209009
0.127803
0.127891
0.134411
0.787681
0.787677
0.138905
0.787584
0.138875
0.787698
0.138823
0.127838
0.127886
0.127803
0.788374
0.138888
0.127907
0.127803
0.138823
0.138900
0.788374
0.138823
0.138823
0.275396
0.275328
0.787655
0.787691
0.208988
0.127958
0.787635
0.275328
0.127806
0.138858
0.127803
0.788374
0.185979
0.138853
0.788374
0.138875
0.809076
0.138823
0.128021
0.787671
0.138914
0.788374
0.127794
0.127794
0.209009
0.128021
0.127815
0.206073
0.717962
0.138823
0.138823
0.134411
0.787617
0.787632
0.127886
0.138839
0.127865
0.138905
0.138814
0.138875
0.138900
0.138905
0.787681
0.127876
0.138853
0.138795
0.808935
0.127865
0.787710
0.134411
0.127884
0.138875
0.132473
0.127868
0.138823
0.138858
0.127865
0.127855
0.132473
0.127803
0.138823
0.127789
0.138823
0.787697
0.138839
0.127884
0.127884
0.787681
0.787635
0.787636
0.275262
0.138888
0.788374
0.127794
0.138905
0.788374
0.127803
0.787447
0.127841
0.127849
0.138914
0.138914
0.138875
0.127849
0.788374
0.138814
0.127891
0.787668
0.127884
0.138850
0.138858
0.138864
0.787810
0.788374
0.787682
0.787710
0.787264
0.787805
0.787681
0.787729
0.787692
0.127794
0.127803
0.787720
0.138823
0.138875
0.127876
0.138868
0.138889
0.138905
0.275277
0.138884
0.127865
0.127803
0.127794
0.127806
0.787191
0.275328
0.275328
0.127803
0.138868
0.787405
0.138875
0.138914
0.132473
0.275430
0.127891
0.138875
0.127865
0.787687
0.787805
0.787584
0.127841
0.787640
0.127907
0.127866
0.127793
0.127809
0.275328
0.138823
0.138823
0.787699
0.138888
0.787788
0.127876
0.787633
0.127806
0.138847
0.787746
0.138888
0.138875
0.787750
0.127794
0.275430
0.127841
0.127803
0.138850
0.275282
0.127868
0.127865
0.138858
0.127803
0.275328
0.127891
0.208876
0.788374
0.138836
0.132473
0.127803
0.208980
0.138853
0.208848
0.127868
0.127794
0.134411
0.127794
0.127855
0.127865
0.127891
0.127838
0.128337
0.208876
0.127838
0.127841
0.127802
0.788374
0.787760
0.138847
0.127907
0.206073
0.127868
0.138853
0.787744
0.138875
0.127865
0.127907
0.787633
0.206073
0.138850
0.127809
0.127838
0.134411
0.787681
0.127876
0.275328
0.787799
0.787681
0.138858
0.127806
0.717962
0.138847
0.138828
0.138823
0.209386
0.208998
0.127866
0.787673
0.787752
0.138822
0.138916
0.127803
0.208998
0.138875
0.138858
0.208876
0.138814
0.787902
0.127891
0.127789
0.138823
0.717962
0.138900
0.787681
0.127794
0.138850
0.138888
0.787699
0.138875
0.787721
0.787740
0.138823
0.787633
0.127838
0.138853
0.138875
0.787668
0.127803
0.127865
0.787681
0.127838
0.138853
0.127802
0.275430
0.138828
0.787632
0.138823
0.138814
0.138853
0.128021
0.127789
0.128337
0.132797
0.787711
0.134411
0.127876
0.787701
0.787731
0.787692
0.127876
0.717962
0.127857
0.128021
0.138916
0.787692
0.787694
0.209009
0.138884
0.787681
0.275384
0.787673
0.128337
0.127891
0.127891
0.787736
0.275362
0.127884
0.788374
0.138836
0.138905
0.138900
0.787681
0.787681
0.138858
0.275328
0.127907
0.138900
0.127866
0.789807
0.369877
0.799816
0.787678
0.787692
0.787750
0.127806
0.138850
0.138823
0.127865
0.138822
0.275365
0.787681
0.275328
0.138864
0.787692
0.138864
0.127868
0.788149
0.127857
0.138900
0.138864
0.787639
0.127855
0.138875
0.127849
0.138858
0.787719
0.127789
0.127882
0.138914
0.787776
0.787668
0.127891
0.787681
0.127871
0.127865
0.127907
0.788374
0.127866
0.138875
0.127806
0.275328
0.138836
0.138828
0.127855
0.127794
0.138858
0.176019
0.787668
0.127849
0.138864
0.138888
0.787681
0.787849
0.127809
0.127789
0.275328
0.127865
0.787810
0.787721
0.138868
0.127857
0.127907
0.787721
0.787692
0.533216
0.132473
0.787597
0.127809
0.138875
0.127789
0.787776
0.787419
0.138864
0.127849
0.127793
0.127838
0.128337
0.138822
0.138823
0.138868
0.808527
0.796165
0.127907
0.127865
0.138858
0.787755
0.787752
0.787740
0.138875
0.787673
0.128021
0.127876
0.127789
0.787681
0.208988
0.127849
0.787749
0.208876
0.127793
0.185979
0.787668
0.127857
0.138847
0.127907
0.127838
0.208998
0.787699
0.808948
0.787718
0.127789
0.275328
0.787781
0.275328
0.275263
0.138888
0.127871
0.127907
0.127802
0.796165
0.787712
0.787681
0.787781
0.127865
0.796165
0.138875
0.138850
0.138888
0.138875
0.138858
0.138814
0.132797
0.275328
0.127806
0.127882
0.127806
0.138858
0.127789
0.132473
0.789059
0.127838
0.806718
0.787624
0.127838
0.787781
0.787729
0.275328
0.787697
0.138823
0.275296
0.138875
0.787737
0.128337
0.787700
0.138795
0.787731
0.275328
0.787760
0.127803
0.127866
0.127876
0.127865
0.128337
0.138836
0.787681
0.138795
0.127865
0.793112
0.275328
0.138853
0.127884
0.127789
0.138858
0.788374
0.275233
0.128337
0.127809
0.127806
0.138864
0.127794
0.533216
0.208980
0.808903
0.787692
0.138853
0.128337
0.788374
0.127857
0.127868
0.127802
0.127849
0.138814
0.787777
0.127809
0.787632
0.127841
0.138888
0.787738
0.127789
0.128337
0.127886
0.127865
0.127841
0.127865
0.138858
0.127907
0.128337
0.127794
0.128337
0.787635
0.128337
0.127793
0.138858
0.127958
0.127809
0.138850
0.138875
0.787699
0.787457
0.138888
0.138823
0.787761
0.127907
0.127806
0.127876
0.275328
0.132797
0.138795
0.127794
0.127789
0.138889
0.138888
0.127868
0.138900
0.138853
0.138905
0.138850
0.808935
0.127793
0.127841
0.127838
0.787681
0.127802
0.138875
0.787639
0.128021
0.208848
0.127803
0.787333
0.127907
0.787752
0.788085
0.128337
0.787681
0.127891
0.127803
0.127809
0.787776
0.127793
0.138828
0.127794
0.787799
0.787687
0.138914
0.138823
0.138858
0.127789
0.275328
0.788374
0.127907
0.127891
0.138914
0.788374
0.208876
0.788374
0.138850
0.127806
0.127838
0.138823
0.138822
0.787681
0.787681
0.787722
0.127907
0.132797
0.138888
0.787723
0.275328
0.138823
0.138823
0.138823
0.787902
0.127838
0.138888
0.138888
0.127789
0.128337
0.138858
0.788374
0.787382
0.717962
0.787668
0.127841
0.132473
0.138888
0.138875
0.138905
0.209009
0.127868
0.138858
0.127803
0.787737
0.138875
0.787699
0.722451
0.127838
0.787681
0.127789
0.138914
0.138828
0.138888
0.275328
0.787597
0.787281
0.127789
0.128337
0.208980
0.127803
0.787761
0.127855
0.138888
0.138858
0.138858
0.127838
0.138916
0.127865
0.138828
0.787695
0.176019
0.138850
0.127865
0.138839
0.127794
0.787191
0.788374
0.127871
0.127876
0.127802
0.788374
0.138795
0.138822
0.127841
0.275233
0.138858
0.127876
0.138875
0.802503
0.275328
0.787720
0.787902
0.138875
0.127789
0.138814
0.138858
0.138916
0.138884
0.787681
0.138875
0.206073
0.127855
0.208998
0.127809
0.138888
0.132473
0.787731
0.787668
0.138850
0.134411
0.128337
0.787657
0.275277
0.127841
0.138888
0.138822
0.787723
0.138875
0.127789
0.787681
0.790561
0.127849
0.127865
0.138875
0.127841
0.787755
0.134411
0.132473
0.138875
0.138836
0.787793
0.809106
0.138875
0.787681
0.787288
0.799816
0.138823
0.138847
0.787662
0.127806
0.128337
0.787681
0.127891
0.138889
0.138892
0.787752
0.806441
0.138858
0.787794
0.138847
0.787657
0.138853
0.138823
0.138905
0.787722
0.787382
0.127876
0.128337
0.206073
0.138864
0.127809
0.127855
0.138888
0.127789
0.787695
0.127806
0.787749
0.127868
0.138828
0.138828
0.138858
0.128337
0.138888
0.787647
0.127865
0.128337
0.127789
0.275328
0.787244
0.128337
0.127802
0.128337
0.127871
0.127838
0.138850
0.138888
0.275328
0.127865
0.138858
0.127789
0.787681
0.787681
0.138850
0.127789
0.138875
0.138888
0.127907
0.787805
0.275338
0.787699
0.127849
0.138823
0.128337
0.787681
0.127866
0.808916
0.138858
0.787776
0.533216
0.127876
0.787620
0.138823
0.275328
0.138858
0.138875
0.138853
0.138905
0.208980
0.787715
0.127865
0.138875
0.127857
0.787800
0.127876
0.127815
0.138823
0.208988
0.787906
0.787794
0.138823
0.138847
0.208876
0.787681
0.134411
0.138916
0.127806
0.127806
0.127841
0.127806
0.275328
0.127803
0.127803
0.127803
0.138864
0.787902
0.787680
0.127891
0.127907
0.208848
0.127794
0.787667
0.787650
0.787766
0.138864
0.138858
0.138889
0.275328
0.127876
0.127789
0.208876
0.275328
0.128337
0.787349
0.127838
0.275328
0.138905
0.787751
0.127838
0.138795
0.787780
0.369877
0.127866
0.275367
0.787267
0.138850
0.787681
0.138914
0.138850
0.138847
0.138858
0.138875
0.787788
0.787631
0.787766
0.138905
0.127907
0.208876
0.127806
0.127907
0.138888
0.138850
0.138864
0.138875
0.788374
0.138914
0.533216
0.127891
0.127871
0.787681
0.127803
0.138875
0.127882
0.127803
0.275328
0.127891
0.409129
0.138905
0.787780
0.787505
0.138875
0.787694
0.787805
0.787721
0.127857
0.138875
0.787597
0.185979
0.787767
0.275303
0.138888
0.127793
0.127803
0.138858
0.127806
0.138858
0.138814
0.787761
0.132473
0.808971
0.127958
0.127841
0.138823
0.127876
0.787123
0.787694
0.787742
0.788374
0.275328
0.787761
0.127868
0.138914
0.138875
0.127884
0.127838
0.138823
0.787657
0.788374
0.128337
0.138823
0.127809
0.138823
0.138875
0.206073
0.275281
0.809076
0.787736
0.275279
0.127891
0.138858
0.787677
0.138875
0.127809
0.138875
0.138892
0.787752
0.127803
0.787751
0.127884
0.787642
0.127891
0.787697
0.787719
0.138875
0.134411
0.208876
0.138858
0.138814
0.138853
0.127958
0.138875
0.138875
0.138858
0.127803
0.788149
0.787405
0.275332
0.127865
0.787779
0.138888
0.787681
0.127891
0.787732
0.127857
0.787781
0.127838
0.275334
0.185979
0.138875
0.127803
0.127865
0.787849
0.138905
0.127789
0.127789
0.788374
0.138888
0.787642
0.127868
0.127789
0.789807
0.127789
0.127865
0.138914
0.787638
0.134411
0.787781
0.127907
0.788374
0.134411
0.787668
0.208980
0.127789
0.127803
0.208988
0.127806
0.138875
0.787759
0.127806
0.127855
0.787668
0.787712
0.533216
0.787617
0.127794
0.127907
0.176019
0.787681
0.132797
0.787681
0.138892
0.138858
0.127794
0.127838
0.127838
0.127865
0.275328
0.127857
0.138814
0.127838
0.787692
0.127789
0.208998
0.127907
0.787617
0.208848
0.127855
0.533216
0.138839
0.275328
0.127806
0.138858
0.808838
0.787634
0.787642
0.138875
0.787699
0.127891
0.295871
0.127891
0.208988
0.275328
0.127849
0.138875
0.787681
0.127891
0.127907
0.787668
0.127884
0.138868
0.127855
0.127806
0.138836
0.127789
0.275328
0.127907
0.127789
0.206073
0.128337
0.787710
0.127789
0.275328
0.138888
0.127789
0.128337
0.138858
0.127803
0.138836
0.138914
0.208980
0.138814
0.787902
0.127809
0.808948
0.138875
0.127907
0.128021
0.533216
0.138858
0.127891
0.138875
0.787681
0.127841
0.127865
0.275328
0.127865
0.138905
0.787788
0.128337
0.127958
0.787592
0.208980
0.787720
0.787700
0.787668
0.138853
0.138875
0.789807
0.808971
0.808903
0.275328
0.127855
0.127803
0.787706
0.138858
0.138839
0.127876
0.275328
0.127841
0.787752
0.787692
0.787123
0.138888
0.787805
0.127884
0.787902
0.787728
0.788085
0.127865
0.138823
0.127865
0.787699
0.127857
0.138900
0.209009
0.138905
0.127849
0.787699
0.138875
0.127789
0.127806
0.138839
0.138858
0.275386
0.787731
0.787800
0.127907
0.275328
0.138847
0.127802
0.176019
0.787681
0.295871
0.127891
0.127865
0.138858
0.127866
0.127803
0.127841
0.127876
0.138884
0.787810
0.138905
0.788374
0.138853
0.127876
0.127868
0.787804
0.127891
0.127794
0.787855
0.138905
0.127806
0.127802
0.127809
0.127809
0.127849
0.128337
0.787698
0.127891
0.787657
0.787736
0.127891
0.788374
0.127794
0.787810
0.128337
0.138823
0.138858
0.275281
0.138905
0.138822
0.127868
0.275328
0.127857
0.138853
0.127849
0.208848
0.138822
0.787750
0.127803
0.138823
0.208980
0.127793
0.138858
0.787804
0.138858
0.138875
0.127865
0.787692
0.127849
0.208998
0.533216
0.127841
0.138875
0.127865
0.787657
0.787642
0.138888
0.138853
0.138858
0.138836
0.127891
0.138875
0.138858
0.787635
0.127865
0.138875
0.138814
0.787209
0.787668
0.127803
0.127802
0.138905
0.138875
0.127815
0.787617
0.787799
0.134411
0.138875
0.132473
0.127868
0.127871
0.138814
0.138839
0.128337
0.127789
0.127865
0.128337
0.127803
0.127803
0.127855
0.127789
0.787788
0.127803
0.134411
0.206073
0.717962
0.127868
0.275328
0.787668
0.127866
0.128337
0.138916
0.128337
0.127865
0.802503
0.127841
0.127803
0.127794
0.127865
0.787902
0.134411
0.138875
0.127802
0.138814
0.787681
0.127886
0.127866
0.787679
0.138905
0.795823
0.127789
0.787457
0.127789
0.138888
0.787668
0.127803
0.127849
0.787638
0.275328
0.127871
0.787642
0.138875
0.127789
0.127958
0.127793
0.787513
0.138875
0.787681
0.209386
0.138875
0.275328
0.138847
0.127806
0.787639
0.127802
0.787614
0.127803
0.275328
0.138889
0.787687
0.127868
0.787692
0.208988
0.127865
0.138888
0.787692
0.275372
0.127876
0.127907
0.275328
0.788374
0.138916
0.787494
0.138875
0.787633
0.138884
0.127876
0.787650
0.787178
0.127838
0.787853
0.788374
0.788374
0.275328
0.138858
0.128337
0.787703
0.138839
0.138823
0.808838
0.138853
0.127793
0.127803
0.138900
0.127794
0.787638
0.138823
0.138875
0.127802
0.787780
0.787681
0.208998
0.127841
0.787712
0.127907
0.808971
0.127838
0.127865
0.138847
0.127891
0.127891
0.138888
0.787679
0.717962
0.127803
0.138850
0.275328
0.208998
0.127868
0.787756
0.787662
0.127803
0.138888
0.138858
0.790561
0.127838
0.127803
0.132797
0.787681
0.127855
0.208980
0.787554
0.808977
0.793588
0.787494
0.127809
0.787635
0.127802
0.127838
0.127876
0.787731
0.127809
0.787722
0.138853
0.787633
0.138875
0.127794
0.138875
0.138864
0.787752
0.138853
0.208876
0.127871
0.127891
0.127882
0.788374
0.138858
0.127802
0.127866
0.127876
0.208876
0.784639
0.138858
0.127793
0.128337
0.787668
0.138875
0.127891
0.138828
0.127809
0.787759
0.127907
0.138823
0.127809
0.787632
0.138823
0.127891
0.787375
0.127806
0.787732
0.787789
0.127802
0.787780
0.132473
0.787902
0.127806
0.787485
0.127806
0.128337
0.787729
0.208876
0.134411
0.127793
0.787668
0.127871
0.275430
0.127794
0.787288
0.138875
0.787123
0.132473
0.808527
0.138888
0.132473
0.138892
0.787722
0.787736
0.787760
0.138875
0.208998
0.138888
0.127882
0.127849
0.787639
0.176019
0.138858
0.787681
0.127841
0.127958
0.138875
0.127794
0.127809
0.138850
0.138823
0.788085
0.128337
0.132473
0.138858
0.787719
0.138847
0.788374
0.138847
0.787750
0.787718
0.138823
0.127891
0.127866
0.127855
0.787712
0.787267
0.127891
0.138892
0.787810
0.127849
0.784639
0.138914
0.138875
0.127789
0.275328
0.787789
0.138823
0.127802
0.138864
0.787668
0.138875
0.772338
0.787767
0.138900
0.138850
0.128337
0.208848
0.127907
0.138888
0.787570
0.138828
0.185979
0.127803
0.787467
0.717962
0.787681
0.138875
0.787698
0.787752
0.138858
0.127868
0.138888
0.787494
0.127806
0.787405
0.275328
0.138823
0.127802
0.795823
0.127806
0.369877
0.275328
0.788374
0.127958
0.787692
0.127882
0.275328
0.787740
0.127794
0.127866
0.208876
0.138884
0.185979
0.138858
0.209009
0.787695
0.176019
0.138900
0.127857
0.138858
0.127803
0.127868
0.127891
0.138850
0.127794
0.787781
0.127876
0.127803
0.127876
0.787701
0.127802
0.127857
0.138884
0.138875
0.127838
0.275328
0.138888
0.787793
0.787799
0.787685
0.127838
0.127958
0.127868
0.127891
0.127865
0.127884
0.208998
0.717962
0.127809
0.138828
0.127891
0.787781
0.787513
0.787788
0.788374
0.787750
0.787624
0.275328
0.138828
0.127802
0.138875
0.127868
0.127838
0.138875
0.127907
0.787750
0.787710
0.127793
0.787242
0.138864
0.787789
0.787300
0.787632
0.127815
0.787382
0.787685
0.138905
0.138858
0.275406
0.138875
0.787788
0.138875
0.788374
0.138888
0.209009
0.127794
0.127838
0.127806
0.185979
0.138875
0.208848
0.138823
0.127849
0.127809
0.138828
0.138888
0.138889
0.127838
0.138888
0.787165
0.176019
0.787729
0.787692
0.138814
0.787777
0.127789
0.787671
0.134411
0.127866
0.128337
0.275328
0.275323
0.275328
0.275328
0.127886
0.787620
0.787642
0.127886
0.138875
0.138905
0.127793
0.796165
0.127809
0.788374
0.138889
0.128337
0.138875
0.788374
0.795823
0.127838
0.275328
0.138858
0.787662
0.127849
0.127794
0.127841
0.787776
0.208988
0.787752
0.788374
0.127855
0.127806
0.787794
0.208988
0.138875
0.138858
0.787780
0.138828
0.127793
0.138847
0.787698
0.138795
0.127865
0.275328
0.787789
0.787678
0.127803
0.128337
0.138875
0.138858
0.127958
0.132473
0.138875
0.787668
0.787681
0.127855
0.138900
0.138823
0.787738
0.127884
0.138853
0.127803
0.275328
0.138914
0.138888
0.138823
0.128337
0.138875
0.787693
0.138858
0.127876
0.138888
0.138875
0.127789
0.138822
0.127855
0.127865
0.138850
0.787708
0.127891
0.127838
0.138853
0.787668
0.208848
0.138884
0.787681
0.209009
0.138875
0.787620
0.787349
0.127793
0.127806
0.128337
0.138814
0.127882
0.127803
0.787712
0.127871
0.787633
0.138888
0.787799
0.127803
0.128021
0.787681
0.127866
0.275328
0.134411
0.735164
0.127789
0.275328
0.127793
0.127794
0.138916
0.787780
0.127882
0.138888
0.275256
0.138914
0.128337
0.138795
0.787902
0.127868
0.127838
0.787692
0.787744
0.138823
0.787681
0.127907
0.127838
0.127857
0.127803
0.128337
0.128337
0.127876
0.138875
0.128337
0.789059
0.127855
0.209009
0.128337
0.808948
0.138839
0.127838
0.138868
0.138839
0.209386
0.275328
0.127865
0.127866
0.138858
0.127876
0.277522
0.127838
0.369877
0.787657
0.787751
0.138875
0.809088
0.275328
0.787681
0.127789
0.787750
0.138884
0.127891
0.127868
0.789762
0.127838
0.787744
0.128021
0.128021
0.787553
0.127907
0.787800
0.138868
0.787650
0.788176
0.138858
0.275328
0.127806
0.138858
0.208876
0.787780
0.138875
0.788374
0.127891
0.127907
0.127793
0.208988
0.127802
0.787733
0.138839
0.784639
0.128337
0.138858
0.127891
0.127882
0.787752
0.127849
0.787668
0.790561
0.787264
0.809012
0.127794
0.138858
0.787737
0.787728
0.209009
0.787788
0.275266
0.138823
0.138823
0.787441
0.787485
0.799816
0.787639
0.138828
0.787654
0.138823
0.127841
0.788374
0.127891
0.127789
0.138847
0.127849
0.787654
0.787635
0.138888
0.787657
0.275356
0.134411
0.127865
0.138875
0.127789
0.127815
0.127857
0.787692
0.138888
0.128337
0.208988
0.127849
0.127884
0.127849
0.127803
0.138850
0.787681
0.127907
0.787740
0.138905
0.275328
0.138839
0.787776
0.788374
0.127838
0.787805
0.138914
0.138875
0.127838
0.127855
0.127803
0.127841
0.787906
0.138823
0.206073
0.138850
0.134411
0.127849
0.127855
0.787513
0.138888
0.138888
0.138875
0.127865
0.127849
0.787788
0.138822
0.127884
0.787681
0.275363
0.533216
0.787810
0.138858
0.788374
0.127891
0.127866
0.138823
0.717962
0.138875
0.787780
0.127838
0.128337
0.127871
0.127865
0.138888
0.138864
0.787681
0.127857
0.138888
0.127886
0.787731
0.127803
0.127802
0.127789
0.138888
0.127789
0.787780
0.138900
0.138900
0.138888
0.138875
0.138916
0.787677
0.541429
0.138875
0.788374
0.787447
0.127803
0.127886
0.138875
0.138868
0.787683
0.138875
0.788374
0.787698
0.127907
0.138888
0.275404
0.127865
0.127838
0.127849
0.127876
0.127855
0.787653
0.787673
0.127849
0.809015
0.788374
0.787712
0.127803
0.127841
0.127806
0.787780
0.138847
0.787687
0.138836
0.275421
0.787750
0.787382
0.138888
0.787761
0.138905
0.127794
0.787632
0.127789
0.127809
0.787761
0.127886
0.127891
0.808977
0.787644
0.127891
0.275328
0.127841
0.127849
0.787789
0.127876
0.127803
0.127891
0.208980
0.127809
0.127806
0.787668
0.138858
0.275328
0.787633
0.138884
0.787721
0.788374
0.138892
0.127865
0.787668
0.127884
0.788374
0.787794
0.138875
0.787799
0.138900
0.208980
0.787822
0.127866
0.138823
0.138858
0.138875
0.787780
0.787805
0.127891
0.127789
0.787902
0.134411
0.127886
0.808997
0.138795
0.127907
0.206073
0.796165
0.127865
0.138847
0.209386
0.138875
0.275328
0.138828
0.127809
0.127803
0.138858
0.787681
0.787906
0.138900
0.138875
0.138875
0.138868
0.138823
0.127855
0.275328
0.275314
0.138900
0.788176
0.787780
0.127789
0.127806
0.787780
0.127865
0.128337
0.787635
0.127891
0.127907
0.127803
0.138828
0.138839
0.275328
0.127865
0.138888
0.127866
0.127802
0.127803
0.787681
0.209386
0.787746
0.788374
0.787732
0.127838
0.138850
0.138828
0.127891
0.138875
0.127849
0.128337
0.127866
0.138875
0.127876
0.127838
0.127793
0.138858
0.208876
0.127806
0.138875
0.138823
0.138858
0.128021
0.132473
0.138858
0.127891
0.127868
0.138888
0.787286
0.138905
0.127809
0.127806
0.127871
0.127891
0.787780
0.787681
0.138868
0.787699
0.127803
0.787643
0.127907
0.127789
0.127841
0.127838
0.787632
0.787759
0.208848
0.127803
0.138828
0.787679
0.787690
0.796165
0.138900
0.138884
0.138868
0.138875
0.127806
0.127789
0.787681
0.787681
0.138888
0.787740
0.138875
0.127803
0.138864
0.127855
0.533216
0.787698
0.809015
0.787793
0.138888
0.787729
0.127806
0.787668
0.138905
0.127907
0.127838
0.128337
0.127868
0.127806
0.787760
0.176019
0.787703
0.127794
0.138850
0.138905
0.127865
0.787755
0.138858
0.127841
0.134411
0.788374
0.275328
0.787553
0.787750
0.209386
0.787674
0.127809
0.127907
0.138875
0.127886
0.787736
0.787753
0.138823
0.787457
0.138858
0.138905
0.788374
0.275328
0.127865
0.138795
0.127882
0.208980
0.138823
0.209009
0.138853
0.787627
0.138850
0.717962
0.787718
0.208876
0.787681
0.138858
0.787681
0.138875
0.127865
0.138892
0.127868
0.533216
0.132473
0.127876
0.787752
0.127806
0.787805
0.787739
0.138888
0.788374
0.138884
0.787681
0.127841
0.127866
0.138858
0.787681
0.138858
0.138875
0.787794
0.127876
0.275328
0.127802
0.138864
0.127803
0.796165
0.787681
0.138858
0.127789
0.127789
0.788374
0.788374
0.127871
0.275328
0.787668
0.127884
0.138900
0.127884
0.208876
0.138888
0.138888
0.185979
0.787681
0.787681
0.787668
0.295871
0.787644
0.787681
0.208998
0.127907
0.138858
0.138823
0.127838
0.127809
0.127789
0.787692
0.128337
0.127855
0.138875
0.788374
0.127841
0.809015
0.127866
0.127803
0.127838
0.277522
0.127886
0.787681
0.127809
0.138822
0.127884
0.787681
0.787639
0.127907
0.132797
0.127803
0.787647
0.127876
0.127803
0.127868
0.138823
0.787679
0.717962
0.127855
0.138858
0.138884
0.138850
0.138853
0.787704
0.127803
0.787805
0.275328
0.134411
0.787662
0.127865
0.369877
0.127891
0.138916
0.138875
0.787770
0.275328
0.809088
0.138916
0.127891
0.787436
0.127907
0.793112
0.208998
0.127794
0.128337
0.127841
0.127857
0.138875
0.138875
0.127803
0.138875
0.127794
0.138858
0.138916
0.275364
0.787760
0.138888
0.275235
0.127794
0.138864
0.127838
0.127907
0.127803
0.787620
0.787668
0.787760
0.138875
0.369877
0.808906
0.787732
0.793112
0.127868
0.127803
0.127865
0.127841
0.138884
0.127841
0.275328
0.138828
0.128021
0.127865
0.787541
0.787703
0.209009
0.134411
0.127815
0.787906
0.128337
0.788374
0.808813
0.138900
0.808997
0.138847
0.787781
0.787712
0.127866
0.787906
0.208848
0.138888
0.127868
0.787804
0.275296
0.138795
0.138850
0.127876
0.275413
0.208848
0.788374
0.275328
0.138875
0.787681
0.787668
0.787732
0.787753
0.127841
0.787744
0.138875
0.787721
0.787681
0.788374
0.138868
0.787699
0.209386
0.787732
0.275421
0.787436
0.132797
0.138822
0.138823
0.127789
0.127868
0.138875
0.127866
0.787647
0.208876
0.808935
0.787382
0.784639
0.127794
0.138875
0.138884
0.208848
0.138888
0.127794
0.127838
0.127806
0.138858
0.138823
0.127865
0.808906
0.128337
0.787681
0.809043
0.788374
0.138847
0.788374
0.128337
0.138916
0.127794
0.787794
0.127803
0.717962
0.138875
0.787494
0.138850
0.809088
0.138888
0.787732
0.788374
0.788374
0.275277
0.209009
0.138916
0.127868
0.787701
0.138875
0.127794
0.138884
0.787777
0.127806
0.787681
0.208848
0.127793
0.787703
0.127876
0.138875
0.787692
0.127809
0.127886
0.787693
0.127876
0.138823
0.787789
0.127958
0.796165
0.128337
0.275364
0.134411
0.787693
0.127789
0.127865
0.787779
0.138905
0.138828
0.127803
0.209009
0.128337
0.519036
0.787737
0.275328
0.127849
0.127793
0.138864
0.138847
0.127794
0.809088
0.127886
0.138836
0.787692
0.127868
0.787793
0.127849
0.788374
0.787740
0.787191
0.138875
0.787728
0.127886
0.127868
0.127855
0.793112
0.127793
0.185979
0.127876
0.138836
0.127789
0.808999
0.787646
0.138888
0.787617
0.788374
0.127891
0.127794
0.138875
0.127891
0.787692
0.275328
0.802503
0.138823
0.138853
0.787735
0.787712
0.138900
0.138888
0.127857
0.128337
0.788374
0.127857
0.127838
0.138822
0.787698
0.138868
0.787593
0.788374
0.127876
0.787750
0.127882
0.787794
0.127794
0.787793
0.138875
0.128021
0.787654
0.787721
0.793588
0.787770
0.787733
0.787780
0.787712
0.787681
0.127803
0.772338
0.127793
0.127855
0.138853
0.128021
0.138888
0.787805
0.127891
0.127891
0.717962
0.127849
0.127865
0.788374
0.127809
0.138888
0.127815
0.138888
0.275328
0.127849
0.138853
0.138823
0.127849
0.138892
0.127803
0.138875
0.127809
0.138905
0.127857
0.787738
0.138858
0.787779
0.127803
0.132473
0.127907
0.127803
0.138858
0.138795
0.787639
0.787704
0.128337
0.127884
0.138875
0.127803
0.788374
0.127865
0.127907
0.138847
0.138847
0.788149
0.138875
0.787681
0.787148
0.127838
0.127841
0.138795
0.127855
0.127793
0.808946
0.138888
0.138875
0.127871
0.127849
0.787794
0.138850
0.138868
0.127803
0.787290
0.138839
0.138828
0.127841
0.138836
0.787681
0.787744
0.127803
0.138875
0.787736
0.788374
0.787799
0.127803
0.127794
0.787746
0.127866
0.787755
0.127865
0.275386
0.787906
0.127865
0.127794
0.787500
0.787681
0.138822
0.134411
0.208998
0.787706
0.788374
0.132473
0.127907
0.787570
0.128337
0.128337
0.787760
0.138858
0.787703
0.127907
0.138850
0.127865
0.760575
0.127866
0.138900
0.787267
0.127891
0.787740
0.127803
0.127803
0.138823
0.808971
0.127866
0.787715
0.127838
0.138858
0.138875
0.787799
0.134411
0.138839
0.138858
0.787671
0.788374
0.127907
0.138823
0.787695
0.787638
0.138836
0.138858
0.127809
0.128021
0.138823
0.788374
0.138822
0.127803
0.138905
0.134411
0.787805
0.788374
0.787721
0.138916
0.127891
0.138888
0.127803
0.127806
0.127849
0.787668
0.127789
0.787732
0.787793
0.128337
0.787692
0.127794
0.127849
0.127789
0.138823
0.127868
0.127907
0.138853
0.127891
0.127871
0.138875
0.127866
0.275256
0.275413
0.138822
0.206073
0.787902
0.808813
0.127794
0.790561
0.138884
0.127857
0.787765
0.208980
0.127886
0.138884
0.138823
0.127855
0.275266
0.127803
0.127806
0.787681
0.127841
0.138795
0.787655
0.787655
0.127868
0.128021
0.138823
0.787681
0.138850
0.138888
0.788374
0.127806
0.275328
0.138850
0.127809
0.127891
0.138823
0.787644
0.138884
0.127876
0.127803
0.127806
0.127891
0.127868
0.138875
0.787642
0.788374
0.132797
0.138888
0.138892
0.787710
0.127803
0.788374
0.787678
0.127868
0.787681
0.138814
0.127849
0.138875
0.127802
0.788374
0.138888
0.138858
0.275328
0.794441
0.138889
0.138828
0.787708
0.787710
0.127803
0.787681
0.787681
0.787805
0.132797
0.138858
0.127866
0.138850
0.127855
0.127907
0.787780
0.275332
0.787692
0.787642
0.138847
0.138828
0.787685
0.138884
0.127866
0.138905
0.808999
0.787333
0.787752
0.138858
0.138864
0.138814
0.138839
0.138875
0.787781
0.787766
0.787780
0.787695
0.127803
0.127891
0.127838
0.128337
0.788374
0.787681
0.127857
0.127803
0.138875
0.127868
0.127803
0.788374
0.138892
0.127806
0.787681
0.127886
0.787744
0.138875
0.176019
0.127855
0.787681
0.127789
0.127865
0.127857
0.208998
0.138900
0.138828
0.787671
0.127891
0.127865
0.138875
0.127868
0.127802
0.138823
0.138875
0.787457
0.138875
0.787617
0.808903
0.787752
0.127865
0.275355
0.787780
0.209009
0.138905
0.808977
0.138858
0.127806
0.127806
0.138875
0.127789
0.275256
0.138823
0.787350
0.275328
0.796165
0.138853
0.788374
0.127891
0.138888
0.787668
0.127866
0.127958
0.127891
0.787770
0.127855
0.138864
0.788374
0.787700
0.138823
0.809088
0.127838
0.138823
0.787217
0.275328
0.127789
0.127806
0.208876
0.138858
0.138875
0.127803
0.128337
0.138875
0.788374
0.128337
0.788374
0.127865
0.127884
0.788374
0.806441
0.138916
0.275404
0.787681
0.138875
0.787788
0.787690
0.138888
0.127876
0.127868
0.138858
0.127884
0.138888
0.787738
0.787721
0.138868
0.275384
0.787217
0.138853
0.127865
0.208848
0.138888
0.134411
0.127855
0.127849
0.127865
0.127891
0.134411
0.787721
0.132473
0.787553
0.127857
0.787681
0.127891
0.128337
0.787681
0.127803
0.787765
0.787681
0.138888
0.787788
0.127849
0.787718
0.138822
0.275363
0.185979
0.138839
0.788374
0.127882
0.128337
0.794441
0.787752
0.127886
0.787300
0.789762
0.787793
0.138916
0.134411
0.127907
0.138888
0.127809
0.138828
0.127789
0.138823
0.787646
0.127806
0.127907
0.787681
0.127866
0.787794
0.787654
0.127806
0.787692
0.787681
0.127841
0.787300
0.134411
0.127891
0.127849
0.787165
0.127794
0.208988
0.787706
0.275328
0.787750
0.127806
0.127789
0.138822
0.138892
0.533216
0.787654
0.127838
0.127806
0.127794
0.787781
0.138823
0.787777
0.787777
0.787148
0.138823
0.127841
0.127789
0.788009
0.794441
0.275365
0.138864
0.808935
0.127865
0.138905
0.208998
0.132797
0.209009
0.787467
0.138888
0.275328
0.787692
0.138864
0.127802
0.138888
0.787441
0.788374
0.127866
0.127803
0.127794
0.128337
0.138868
0.127806
0.138823
0.138828
0.138868
0.208998
0.787644
0.128021
0.127806
0.128337
0.138839
0.127803
0.787681
0.787700
0.127794
0.787668
0.127806
0.787633
0.806441
0.127886
0.127849
0.127865
0.138858
0.138916
0.787736
0.787668
0.127802
0.138875
0.787681
0.127882
0.127803
0.787681
0.138884
0.787681
0.787677
0.138892
0.127806
0.138900
0.208998
0.787777
0.138823
0.127958
0.787441
0.787681
0.134411
0.787668
0.208998
0.138905
0.127865
0.787382
0.127806
0.138823
0.127868
0.127841
0.787681
0.127838
0.127857
0.127857
0.138868
0.208876
0.127849
0.127794
0.138864
0.127838
0.127891
0.787524
0.127806
0.138868
0.787777
0.127886
0.787737
0.138914
0.138823
0.128337
0.127907
0.127806
0.127891
0.127841
0.127865
0.138828
0.127838
0.277076
0.787642
0.127866
0.788374
0.206073
0.787668
0.127803
0.138814
0.275328
0.787668
0.788374
0.127958
0.128337
0.787754
0.127806
0.788085
0.787731
0.134411
0.787731
0.275314
0.787657
0.787494
0.127793
0.127855
0.127838
0.127803
0.788374
0.127803
0.134411
0.134411
0.787712
0.208980
0.787668
0.138875
0.787692
0.127803
0.788242
0.138822
0.788374
0.127794
0.138888
0.138875
0.138875
0.787681
0.128337
0.127841
0.127841
0.127855
0.794441
0.138850
0.127907
0.127865
0.127793
0.787746
0.127809
0.787776
0.787902
0.127891
0.275413
0.206073
0.138868
0.138888
0.138822
0.127793
0.808951
0.275328
0.787587
0.176019
0.275328
0.788242
0.138850
0.127866
0.134411
0.138888
0.127789
0.127886
0.138823
0.275328
0.369877
0.134411
0.127841
0.275328
0.128337
0.127866
0.127806
0.138914
0.127803
0.138823
0.127803
0.138823
0.138884
0.138858
0.209386
0.787776
0.127857
0.275328
0.128337
0.127803
0.787794
0.787798
0.722451
0.127838
0.787800
0.127794
0.127886
0.138889
0.787692
0.208998
0.127866
0.787902
0.275328
0.275328
0.138900
0.787752
0.788374
0.138847
0.127865
0.127849
0.138839
0.138875
0.127907
0.787685
0.127855
0.138875
0.206073
0.787494
0.808935
0.369877
0.787639
0.127868
0.787754
0.128337
0.138822
0.127891
0.808999
0.138823
0.127841
0.787740
0.787793
0.138823
0.138875
0.127806
0.275328
0.138900
0.127855
0.127793
0.138875
0.138875
0.127838
0.787751
0.787681
0.808977
0.127866
0.138823
0.127871
0.127866
0.134411
0.127789
0.787701
0.127866
0.275328
0.138868
0.127849
0.127866
0.788374
0.127806
0.127884
0.127793
0.127838
0.787350
0.275328
0.138875
0.138875
0.127865
0.138853
0.208848
0.127855
0.787777
0.138875
0.138814
0.127891
0.138823
0.127838
0.787681
0.127838
0.138888
0.138823
0.277076
0.787635
0.127838
0.138916
0.138864
0.717962
0.787666
0.788374
0.209009
0.209386
0.787699
0.138823
0.275328
0.127806
0.127865
0.787646
0.127803
0.541429
0.787632
0.138900
0.787699
0.275364
0.128021
0.138905
0.138875
0.138914
0.787517
0.127794
0.787780
0.127891
0.127841
0.138914
0.134411
0.275413
0.208988
0.802503
0.787681
0.138888
0.787744
0.138823
0.794277
0.128337
0.138900
0.275328
0.138888
0.787681
0.127793
0.787783
0.275328
0.127809
0.185979
0.127838
0.787804
0.138823
0.127884
0.275328
0.787286
0.787681
0.787723
0.209386
0.787627
0.787161
0.275328
0.787732
0.127865
0.787744
0.208988
0.275256
0.127838
0.127884
0.787697
0.128021
0.808669
0.138858
0.176019
0.127855
0.138853
0.787718
0.127815
0.127838
0.275328
0.127803
0.796165
0.128021
0.127907
0.138853
0.127794
0.138839
0.127806
0.808971
0.138814
0.275328
0.787711
0.787750
0.138828
0.127789
0.127789
0.138864
0.277522
0.787668
0.127855
0.787288
0.787794
0.138864
0.138858
0.788374
0.717962
0.787706
0.208848
0.138875
0.208988
0.138888
0.138836
0.127865
0.127841
0.127907
0.138822
0.138905
0.208988
0.127868
0.138892
0.127871
0.127865
0.788374
0.787441
0.138847
0.138823
0.128337
0.127882
0.127789
0.787633
0.127794
0.787765
0.138839
0.787633
0.127857
0.787688
0.787698
0.127809
0.127857
0.127803
0.127806
0.138858
0.787739
0.808903
0.787570
0.787736
0.127865
0.138823
0.138823
0.127838
0.127891
0.127868
0.138823
0.138823
0.127803
0.138875
0.208848
0.127794
0.787668
0.717962
0.128337
0.787712
0.787685
0.787731
0.127806
0.138850
0.208848
0.206073
0.787751
0.127876
0.132797
0.787902
0.127806
0.787706
0.127806
0.275328
0.275244
0.275328
0.794441
0.138847
0.138864
0.138905
0.275328
0.787657
0.127803
0.138900
0.127803
0.127789
0.275328
0.787776
0.787678
0.788374
0.127849
0.127866
0.138875
0.127806
0.275362
0.127865
0.138847
0.787629
0.787681
0.138864
0.138823
0.208988
0.787340
0.787720
0.138814
0.787267
0.127907
0.138905
0.127866
0.787333
0.138888
0.787767
0.793112
0.127891
0.127891
0.787681
0.787722
0.787685
0.127857
0.787692
0.127794
0.787780
0.127865
0.127866
0.787691
0.127886
0.277076
0.128337
0.128337
0.138868
0.787736
0.209009
0.138822
0.787715
0.127841
0.127838
0.275328
0.275367
0.127803
0.787668
0.127803
0.127849
0.127907
0.138864
0.787759
0.127802
0.794441
0.787553
0.717962
0.138888
0.127849
0.127793
0.787681
0.127789
0.127886
0.127815
0.127794
0.138823
0.787752
0.127806
0.787715
0.128337
0.127803
0.127803
0.787793
0.127868
0.138858
0.127803
0.127806
0.134411
0.275421
0.127884
0.787668
0.127857
0.138814
0.127809
0.138847
0.127815
0.127876
0.788374
0.127865
0.138858
0.127809
0.275328
0.275328
0.138858
0.788374
0.787728
0.138864
0.127803
0.138888
0.138858
0.138868
0.127891
0.275328
0.127806
0.127789
0.127806
0.127806
0.787673
0.127803
0.127865
0.138914
0.275344
0.127789
0.127794
0.138823
0.127855
0.127907
0.127857
0.787655
0.134411
0.275263
0.127849
0.209009
0.176019
0.138900
0.127866
0.138858
0.127891
0.185979
0.787788
0.134411
0.787752
0.138914
0.787668
0.787750
0.787780
0.275328
0.787699
0.787419
0.127794
0.808906
0.127855
0.127789
0.788374
0.787526
0.127793
0.127849
0.787668
0.134411
0.138900
0.787460
0.808948
0.138875
0.127876
0.138858
0.127857
0.138875
0.788149
0.208876
0.127841
0.127806
0.127868
0.138836
0.138853
0.787788
0.138853
0.788374
0.138888
0.185979
0.127876
0.138850
0.127838
0.787644
0.787681
0.138875
0.787902
0.787902
0.138847
0.138888
0.127841
0.138823
0.138875
0.275328
0.138839
0.138858
0.784639
0.787668
0.127789
0.127868
0.208988
0.127876
0.138823
0.787781
0.787794
0.185979
0.787668
0.138839
0.275328
0.275328
0.127803
0.127855
0.127865
0.138875
0.127809
0.787710
0.138888
0.127876
0.787902
0.138823
0.788374
0.127803
0.127855
0.808669
0.127794
0.787553
0.208848
0.127841
0.138892
0.788374
0.787800
0.138850
0.138814
0.809060
0.787751
0.138858
0.275355
0.787805
0.788374
0.686768
0.127809
0.138875
0.138858
0.275328
0.127806
0.793588
0.802503
0.127803
0.138875
0.127866
0.787633
0.127891
0.717962
0.127876
0.132473
0.127789
0.132797
0.127841
0.793112
0.787692
0.787770
0.788374
0.127855
0.127907
0.788374
0.127838
0.138905
0.435282
0.127838
0.787672
0.138888
0.127803
0.409129
0.127789
0.787281
0.138839
0.127841
0.127809
0.138892
0.787668
0.127891
0.138875
0.787644
0.787805
0.138847
0.787681
0.787751
0.127907
0.128337
0.127809
0.808997
0.787777
0.138868
0.128337
0.787681
0.788374
0.128337
0.787657
0.127866
0.127891
0.138828
0.127789
0.787731
0.799816
0.808527
0.127803
0.127789
0.127794
0.127803
0.138850
0.134411
0.127907
0.138875
0.138875
0.138888
0.787701
0.127907
0.127865
0.127868
0.138875
0.185979
0.138900
0.787300
0.787584
0.138823
0.208980
0.787793
0.127789
0.127841
0.138823
0.787804
0.128021
0.787597
0.787794
0.132473
0.127803
0.275328
0.208980
0.138858
0.127865
0.127806
0.127803
0.138858
0.138875
0.138864
0.275328
0.127803
0.138914
0.138858
0.138847
0.788374
0.127794
0.127841
0.138900
0.138823
0.127838
0.787793
0.127855
0.138875
0.127866
0.788374
0.127871
0.275328
0.138875
0.787681
0.808986
0.138875
0.787805
0.127806
0.138884
0.138888
0.127882
0.787668
0.127841
0.127802
0.138858
0.809076
0.717962
0.127855
0.138823
0.127855
0.209386
0.127803
0.138823
0.138795
0.127891
0.134411
0.206073
0.127803
0.127855
0.138858
0.788374
0.787799
0.787657
0.787597
0.138858
0.127865
0.595034
0.788374
0.134411
0.127891
0.787524
0.787793
0.468273
0.127809
0.128337
0.138858
0.787849
0.128337
0.128021
0.127803
0.127793
0.138858
0.541429
0.787902
0.127876
0.185979
0.138888
0.128337
0.138864
0.138888
0.127789
0.138850
0.787704
0.787681
0.127806
0.127866
0.787752
0.787721
0.787732
0.275355
0.209009
0.209386
0.138823
0.138875
0.787249
0.127855
0.138822
0.787678
0.808935
0.127857
0.787722
0.127838
0.138823
0.138823
0.138853
0.138875
0.138905
0.787737
0.209009
0.127803
0.134411
0.787767
0.138858
0.127884
0.787754
0.787673
0.138828
0.127841
0.787780
0.127857
0.275328
0.127891
0.787681
0.787799
0.127849
0.787692
0.788374
0.127865
0.185979
0.787766
0.127907
0.127793
0.127891
0.138889
0.787634
0.787746
0.138836
0.138858
0.127891
0.127802
0.138858
0.127806
0.787822
0.127794
0.138888
0.275328
0.132473
0.808903
0.787681
0.275328
0.138875
0.127789
0.138858
0.138875
0.787729
0.787681
0.138853
0.138875
0.787761
0.127876
0.138823
0.127868
0.717962
0.787677
0.796165
0.185979
0.127789
0.127794
0.127855
0.809012
0.788374
0.138823
0.128337
0.787668
0.809088
0.132797
0.127789
0.208988
0.127866
0.127855
0.787767
0.127789
0.127855
0.127855
0.209386
0.787620
0.127806
0.787906
0.808903
0.723675
0.127806
0.787333
0.796165
0.787631
0.127838
0.808669
0.787638
0.787695
0.787624
0.127803
0.208980
0.787349
0.787454
0.787718
0.127806
0.132797
0.127865
0.127803
0.127803
0.796165
0.138853
0.787123
0.127803
0.127849
0.127838
0.787593
0.127876
0.138847
0.127907
0.138858
0.127793
0.127865
0.138822
0.787686
0.127809
0.787695
0.787592
0.138875
0.127857
0.127855
0.127857
0.138858
0.127907
0.132797
0.138822
0.127841
0.127838
0.127891
0.787737
0.787750
0.787770
0.275251
0.787737
0.127855
0.788009
0.138916
0.787732
0.787906
0.127865
0.275328
0.275328
0.176019
0.787681
0.808948
0.275328
0.208848
0.138823
0.787513
0.138888
0.127958
0.127866
0.808946
0.787752
0.787681
0.138850
0.138839
0.275381
0.787752
0.127907
0.127865
0.138916
0.127794
0.127871
0.138875
0.787394
0.127794
0.127907
0.127891
0.138847
0.127865
0.138853
0.127789
0.787777
0.717962
0.127789
0.787723
0.275256
0.134411
0.788374
0.808865
0.794441
0.138900
0.134411
0.127865
0.127789
0.787668
0.128337
0.185979
0.275328
0.127838
0.127907
0.138875
0.127866
0.787756
0.127855
0.127849
0.127794
0.138892
0.275328
0.787793
0.127803
0.127789
0.787692
0.127907
0.127849
0.138853
0.127884
0.127866
0.787703
0.134411
0.788374
0.127809
0.369877
0.787751
0.468273
0.787746
0.138916
0.787633
0.127866
0.138858
0.138828
0.127794
0.127806
0.788374
0.138853
0.127891
0.127857
0.787681
0.127891
0.808865
0.787480
0.208988
0.127891
0.208876
0.127789
0.787706
0.127865
0.787711
0.134411
0.138916
0.127871
0.138888
0.787647
0.127803
0.275328
0.127789
0.134411
0.788648
0.127958
0.138858
0.787668
0.127802
0.787635
0.799816
0.787750
0.787719
0.138795
0.138875
0.138875
0.787752
0.787668
0.127794
0.138836
0.138914
0.127802
0.138889
0.127866
0.787667
0.787681
0.127806
0.127793
0.127803
0.787682
0.138888
0.127794
0.787723
0.788374
0.132797
0.138864
0.127838
0.787681
0.127907
0.127802
0.809076
0.134411
0.138875
0.127841
0.138875
0.787620
0.127907
0.127868
0.138875
0.138814
0.787732
0.787584
0.127868
0.138823
0.132797
0.127794
0.787657
0.127855
0.788374
0.787788
0.127866
0.127806
0.138853
0.127838
0.789762
0.138888
0.138828
0.127841
0.788374
0.127857
0.127855
0.127803
0.138847
0.787638
0.127815
0.209009
0.134411
0.127809
0.771831
0.138839
0.787794
0.138847
0.127789
0.127907
0.127794
0.134411
0.128337
0.275328
0.209009
0.138875
0.787681
0.127907
0.468273
0.138858
0.787780
0.209009
0.787668
0.127891
0.787722
0.275396
0.138875
0.808971
0.127865
0.787513
0.127868
0.176019
0.138875
0.138916
0.138850
0.208848
0.138828
0.717962
0.787657
0.127809
0.127803
0.138888
0.138875
0.787697
0.138884
0.138900
0.787655
0.787799
0.138916
0.138888
0.127802
0.138888
0.127882
0.787617
0.138875
0.138858
0.806718
0.138853
0.787751
0.787708
0.733540
0.209386
0.275281
0.787793
0.787674
0.808948
0.208980
0.127809
0.138839
0.787700
0.138888
0.787710
0.787668
0.787736
0.787721
0.127891
0.138875
0.787739
0.808971
0.787902
0.138858
0.275262
0.787681
0.134411
0.275328
0.275328
0.788374
0.138905
0.787805
0.138858
0.138875
0.787681
0.787751
0.138795
0.787148
0.127868
0.128337
0.138836
0.787681
0.206073
0.127866
0.127789
0.788242
0.127871
0.787731
0.128337
0.787906
0.787751
0.206073
0.788374
0.127841
0.127891
0.787732
0.275277
0.127907
0.138875
0.127789
0.127803
0.787441
0.275384
0.788009
0.138823
0.138823
0.275314
0.127803
0.275328
0.208848
0.787681
0.808813
0.787752
0.127789
0.275328
0.275328
0.138814
0.127857
0.127806
0.127793
0.787668
0.138836
0.127884
0.138828
0.127855
0.127803
0.275294
0.277076
0.138836
0.788374
0.127855
0.127806
0.787155
0.788374
0.127855
0.787776
0.127838
0.176019
0.128337
0.787668
0.127882
0.138853
0.127838
0.275328
0.208988
0.127838
0.127806
0.787681
0.808951
0.787668
0.468273
0.787855
0.185979
0.138822
0.138884
0.134411
0.127815
0.787617
0.127838
0.127891
0.787554
0.802503
0.787681
0.787654
0.369877
0.787788
0.138875
0.787766
0.127866
0.275328
0.127907
0.134411
0.127803
0.802503
0.787749
0.787770
0.128337
0.128021
0.138858
0.787657
0.127802
0.127841
0.127841
0.138888
0.275328
0.128021
0.138914
0.127838
0.127849
0.127855
0.787694
0.787679
0.787750
0.138858
0.127907
0.128337
0.127838
0.127838
0.206073
0.138875
0.788374
0.127891
0.127802
0.275328
0.788374
0.127803
0.138858
0.787728
0.127803
0.787754
0.787712
0.127802
0.138823
0.138836
0.127802
0.138884
0.127855
0.185979
0.132797
0.127838
0.409129
0.127849
0.138850
0.138823
0.277076
0.787681
0.127803
0.138875
0.808986
0.787751
0.787681
0.138814
0.787681
0.787780
0.787668
0.127789
0.127789
0.127806
0.127789
0.787788
0.138868
0.138905
0.127803
0.787777
0.787634
0.787681
0.127882
0.788374
0.138914
0.138795
0.127891
0.788374
0.127803
0.127907
0.138875
0.788374
0.787642
0.787728
0.275328
0.138892
0.132797
0.127803
0.127803
0.127806
0.127838
0.127884
0.138822
0.138914
0.127806
0.138850
0.127866
0.138914
0.138850
0.127855
0.127802
0.787770
0.275328
0.787667
0.138888
0.275328
0.138828
0.127907
0.138875
0.787681
0.787288
0.138858
0.787780
0.787776
0.788242
0.788374
0.127891
0.138858
0.787756
0.138888
0.787706
0.793112
0.138858
0.787723
0.787766
0.127866
0.127891
0.138875
0.127789
0.127891
0.138823
0.127865
0.787902
0.788176
0.138875
0.787767
0.127793
0.127841
0.787760
0.275328
0.127866
0.128021
0.787704
0.275328
0.788374
0.808916
0.127806
0.787524
0.717962
0.127838
0.127857
0.127815
0.138853
0.127803
0.138853
0.787698
0.787715
0.788374
0.138914
0.127838
0.787728
0.127884
0.138823
0.127841
0.806441
0.138858
0.138875
0.787723
0.787692
0.138916
0.806441
0.127884
0.788374
0.275294
0.138875
0.787597
0.787681
0.787681
0.787720
0.787699
0.127891
0.787760
0.127891
0.127806
0.138814
0.127793
0.127789
0.787780
0.138875
0.138905
0.788374
0.127907
0.138823
0.787779
0.138823
0.134411
0.787902
0.787686
0.127855
0.787267
0.127891
0.787906
0.138828
0.722451
0.138850
0.209009
0.788374
0.787721
0.787674
0.127793
0.209009
0.138888
0.138916
0.127793
0.787668
0.127806
0.787906
0.127794
0.127789
0.787509
0.788374
0.138888
0.138853
0.788374
0.127803
0.787712
0.787751
0.138823
0.787505
0.127865
0.787668
0.787681
0.138884
0.138858
0.127907
0.127907
0.134411
0.787692
0.275328
0.808916
0.138858
0.788374
0.787690
0.138850
0.127891
0.127857
0.138850
0.138836
0.138905
0.787681
0.138916
0.808916
0.127838
0.127841
0.138828
0.127789
0.127789
0.134411
0.127891
0.127841
0.789762
0.787614
0.809015
0.138828
0.127803
0.787668
0.134411
0.809015
0.787681
0.128021
0.127809
0.138853
0.138823
0.127789
0.127809
0.127876
0.275328
0.127789
0.127855
0.787752
0.138888
0.787681
0.127803
0.787700
0.275328
0.787681
0.275328
0.138875
0.787681
0.787902
0.176019
0.127865
0.134411
0.208980
0.128337
0.127793
0.808971
0.127865
0.138828
0.808997
0.128337
0.787672
0.275421
0.138868
0.788374
0.787620
0.788374
0.787780
0.134411
0.138916
0.208876
0.787755
0.127794
0.788374
0.787629
0.138868
0.787668
0.138864
0.788242
0.127841
0.138888
0.127868
0.138850
0.275328
0.787632
0.275328
0.138850
0.138858
0.138858
0.787668
0.787728
0.127841
0.787750
0.127884
0.127855
0.138858
0.206073
0.132473
0.138888
0.138795
0.138888
0.127855
0.138836
0.127815
0.138858
0.138858
0.127855
0.138875
0.127884
0.128337
0.138875
0.787750
0.127809
0.127855
0.127907
0.208876
0.808948
0.533216
0.787752
0.138828
0.127884
0.134411
0.128337
0.138875
0.138875
0.138864
0.128337
0.787728
0.138839
0.127809
0.809076
0.787698
0.176019
0.127891
0.138847
0.275328
0.134411
0.127809
0.787683
0.138875
0.786504
0.138875
0.787728
0.209009
0.138875
0.127871
0.138850
0.787629
0.127907
0.788374
0.127849
0.127884
0.128337
0.788149
0.138888
0.127806
0.808951
0.208848
0.138823
0.127891
0.138828
0.127849
0.787780
0.127871
0.127803
0.127794
0.127803
0.787419
0.128337
0.787340
0.787687
0.787799
0.787674
0.138858
0.138884
0.127806
0.138828
0.127907
0.138858
0.127865
0.138858
0.788374
0.127838
0.275328
0.138847
0.138875
0.275396
0.127802
0.127794
0.127907
0.138868
0.788009
0.788374
0.787799
0.127865
0.128337
0.138875
0.787710
0.127884
0.127803
0.138888
0.787800
0.138814
0.127907
0.138850
0.787668
0.127841
0.787805
0.127793
0.787761
0.127907
0.787694
0.138858
0.138858
0.787644
0.787494
0.127803
0.127865
0.787699
0.127884
0.138905
0.468273
0.788374
0.209386
0.369877
0.134411
0.787712
0.208988
0.127855
0.127866
0.127838
0.275384
0.127838
0.788374
0.127855
0.127868
0.275328
0.127907
0.787700
0.134411
0.787681
0.127838
0.787780
0.176019
0.787812
0.138823
0.787694
0.809012
0.138875
0.127793
0.127794
0.138823
0.128337
0.127907
0.128337
0.787509
0.790561
0.127855
0.127838
0.127891
0.409129
0.127866
0.138822
0.127865
0.138888
0.127868
0.787485
0.127907
0.138814
0.208988
0.275279
0.138858
0.138853
0.127855
0.138847
0.138875
0.127838
0.788374
0.138900
0.788374
0.138795
0.787693
0.127857
0.787779
0.127884
0.138916
0.134411
0.787668
0.128337
0.787668
0.138888
0.127857
0.787719
0.127891
0.138823
0.138916
0.787698
0.787460
0.787633
0.138888
0.787681
0.138858
0.138884
0.127876
0.138888
0.787699
0.787746
0.787708
0.275328
0.127809
0.138875
0.138853
0.134411
0.138858
0.127841
0.138858
0.127907
0.127803
0.127855
0.127865
0.793588
0.138850
0.127802
0.787635
0.793588
0.127793
0.127803
0.138875
0.127866
0.788374
0.127841
0.138889
0.127802
0.787754
0.127815
0.806718
0.787706
0.127907
0.127809
0.176019
0.787668
0.127891
0.134411
0.787668
0.787810
0.127803
0.185979
0.127803
0.138888
0.127841
0.787746
0.127866
0.787654
0.796165
0.787681
0.787593
0.127855
0.808948
0.275328
0.127803
0.790561
0.138823
0.787799
0.787711
0.138888
0.787513
0.138875
0.127838
0.127794
0.787657
0.138858
0.787780
0.127809
0.138888
0.787718
0.127789
0.127857
0.127891
0.127789
0.787721
0.809088
0.127806
0.127876
0.275384
0.127806
0.138900
0.787794
0.808865
0.127794
0.127876
0.787732
0.787692
0.127958
0.127907
0.275328
0.275421
0.138914
0.138850
0.127907
0.138888
0.138823
0.127958
0.275233
0.127803
0.127891
0.275380
0.127838
0.134411
0.733540
0.127806
0.773544
0.127907
0.127809
0.369877
0.127891
0.127891
0.802503
0.787620
0.127841
0.127907
0.787668
0.138875
0.127907
0.127803
0.787650
0.138858
0.138823
0.138853
0.787405
0.788374
0.787419
0.128337
0.787760
0.209386
0.275367
0.134411
0.127803
0.787692
0.134411
0.134411
0.787736
0.787766
0.128337
0.127907
0.138836
0.275328
0.787681
0.127891
0.132797
0.787191
0.127809
0.127886
0.127806
0.138853
0.138858
0.127907
0.787728
0.787700
0.788374
0.138823
0.787668
0.138853
0.134411
0.787668
0.134411
0.127868
0.127891
0.808986
0.127789
0.138858
0.787694
0.787752
0.138822
0.138850
0.138914
0.127958
0.787728
0.127803
0.127809
0.127907
0.127907
0.138888
0.806718
0.787752
0.208988
0.127789
0.127806
0.127876
0.138892
0.138847
0.127806
0.787906
0.787668
0.787756
0.787680
0.787494
0.138892
0.787115
0.787751
0.787668
0.127855
0.788374
0.127806
0.787751
0.138822
0.787781
0.138858
0.787667
0.127803
0.132797
0.787752
0.138892
0.127891
0.787657
0.138847
0.787662
0.795823
0.138828
0.127865
0.291136
0.127794
0.127803
0.138888
0.127838
0.127789
0.787668
0.127849
0.787340
0.138905
0.275328
0.787673
0.138905
0.127789
0.787480
0.127855
0.128337
0.127803
0.787706
0.208848
0.127803
0.127958
0.787447
0.138864
0.138875
0.808916
0.787191
0.138875
0.128337
0.138858
0.787760
0.787738
0.787681
0.138884
0.132473
0.127865
0.127803
0.138875
0.127838
0.127803
0.128337
0.138858
0.134411
0.127803
0.787657
0.787679
0.127815
0.127884
0.127907
0.787681
0.138875
0.127849
0.127865
0.127838
0.275328
0.138875
0.138822
0.127855
0.138916
0.127794
0.127865
0.788374
0.138828
0.275324
0.127794
0.134411
0.134411
0.788374
0.127891
0.787755
0.787788
0.132473
0.127803
0.787740
0.787805
0.787382
0.138888
0.127865
0.127789
0.787700
0.138828
0.127865
0.788374
0.787633
0.138875
0.787800
0.138868
0.787681
0.275328
0.127855
0.541429
0.138858
0.275381
0.138884
0.787712
0.127794
0.127841
0.127907
0.127868
0.138858
0.185979
0.787668
0.138850
0.275328
0.787712
0.127884
0.668913
0.138900
0.138875
0.275328
0.127866
0.138889
0.127802
0.127907
0.127855
0.138888
0.787719
0.808527
0.127841
0.787592
0.787810
0.127865
0.138875
0.275266
0.127794
0.138884
0.787770
0.138875
0.127794
0.138916
0.128337
0.787681
0.127841
0.127841
0.138850
0.787677
0.127841
0.138822
0.208980
0.127891
0.788374
0.275277
0.127803
0.138828
0.138858
0.138875
0.127789
0.788374
0.127876
0.787780
0.138900
0.127907
0.809015
0.209009
0.127891
0.787793
0.127802
0.127865
0.787666
0.787805
0.787810
0.127891
0.138823
0.138888
0.127809
0.787655
0.138905
0.787692
0.127907
0.138853
0.788374
0.138853
0.127865
0.138823
0.787691
0.138888
0.787657
0.127838
0.787681
0.138888
0.185979
0.138853
0.127806
0.127891
0.787668
0.809043
0.127806
0.787668
0.127855
0.275328
0.138875
0.787681
0.127907
0.138900
0.208980
0.127838
0.127907
0.127789
0.138823
0.138823
0.127838
0.127865
0.788335
0.275328
0.787736
0.275328
0.138822
0.138823
0.787681
0.127865
0.127806
0.787671
0.138875
0.787687
0.789762
0.138858
0.787739
0.127907
0.127865
0.138853
0.127855
0.127803
0.787751
0.138875
0.787668
0.809088
0.132797
0.138823
0.127907
0.787745
0.788374
0.138858
0.209386
0.127907
0.127865
0.127876
0.787617
0.138875
0.808865
0.787805
0.787712
0.127855
0.138828
0.127876
0.533216
0.787692
0.787617
0.787634
0.787476
0.788374
0.787745
0.138850
0.127891
0.787754
0.127841
0.138839
0.717962
0.127806
0.138853
0.787728
0.788374
0.275266
0.138850
0.787657
0.185979
0.127803
0.787752
0.275303
0.138875
0.138888
0.138858
0.788374
0.787711
0.127866
0.127868
0.127907
0.369877
0.788374
0.127891
0.138823
0.275380
0.132797
0.787746
0.138823
0.127882
0.134411
0.127907
0.127891
0.127838
0.275406
0.275396
0.208998
0.788176
0.127789
0.128337
0.787793
0.127855
0.127855
0.138850
0.138839
0.787770
0.788374
0.138858
0.127855
0.787382
0.127838
0.138900
0.138822
0.127891
0.138905
0.787668
0.275246
0.127793
0.808986
0.797363
0.127855
0.138884
0.127841
0.138875
0.138900
0.127855
0.787906
0.787681
0.209386
0.787736
0.787708
0.127806
0.788374
0.787662
0.127838
0.127806
0.787735
0.275328
0.127868
0.138850
0.128021
0.138858
0.138823
0.127809
0.128021
0.788374
0.533216
0.127891
0.138875
0.127794
0.127838
0.787681
0.127891
0.127907
0.127891
0.127866
0.127838
0.275328
0.127849
0.787752
0.138858
0.185979
0.127886
0.138822
0.127865
0.208998
0.787681
0.275328
0.533216
0.787732
0.788374
0.128337
0.787690
0.787693
0.788176
0.275362
0.127871
0.787692
0.668913
0.138822
0.138828
0.127803
0.138888
0.127891
0.787584
0.138864
0.127907
0.127838
0.127841
0.138823
0.127871
0.787635
0.138875
0.369877
0.788374
0.127891
0.787635
0.138853
0.138875
0.176019
0.127855
0.127866
0.138875
0.127806
0.127806
0.787587
0.127789
0.127789
0.138875
0.787780
0.127865
0.127876
0.138858
0.138875
0.787670
0.787447
0.138888
0.127802
0.127884
0.127857
0.138875
0.127806
0.788374
0.138823
0.127855
0.127789
0.138822
0.127891
0.787776
0.275328
0.787685
0.787681
0.787750
0.127891
0.127806
0.208876
0.127803
0.127857
0.127849
0.787722
0.787794
0.127891
0.138847
0.138836
0.127803
0.788374
0.127891
0.138864
0.127794
0.127876
0.127802
0.127806
0.209386
0.787681
0.787781
0.787793
0.788149
0.138864
0.275328
0.127809
0.134411
0.127793
0.127841
0.127865
0.787729
0.127865
0.128021
0.275328
0.138795
0.788374
0.208848
0.787738
0.127891
0.771831
0.127865
0.138795
0.127789
0.138850
0.787681
0.127891
0.275328
0.127865
0.788374
0.787681
0.138875
0.127803
0.138884
0.127838
0.127841
0.787457
0.127793
0.138888
0.127868
0.127855
0.787457
0.127855
0.787631
0.787161
0.127789
0.787386
0.808951
0.275328
0.787698
0.787382
0.138888
0.127865
0.138875
0.717962
0.127802
0.127789
0.127841
0.138916
0.127789
0.787617
0.127794
0.275328
0.787701
0.127876
0.138823
0.787751
0.533216
0.138868
0.127789
0.787654
0.208876
0.127865
0.138836
0.138875
0.127891
0.275328
0.127815
0.127855
0.787699
0.138888
0.275328
0.787781
0.275305
0.787749
0.277076
0.127866
0.127907
0.787691
0.787703
0.127789
0.209009
0.206073
0.138822
0.134411
0.788374
0.127789
0.208998
0.127857
0.127809
0.788176
0.787699
0.138814
0.127865
0.127868
0.787681
0.138836
0.127789
0.787681
0.138823
0.138839
0.275328
0.787554
0.208848
0.138875
0.127891
0.134411
0.787681
0.787681
0.787681
0.138823
0.127876
0.787799
0.787780
0.787693
0.138875
0.138823
0.787754
0.138836
0.128337
0.795823
0.138875
0.787614
0.787752
0.209009
0.138839
0.127865
0.787647
0.127886
0.787752
0.138875
0.127855
0.138858
0.787789
0.787451
0.127865
0.127803
0.275328
0.127794
0.138864
0.127809
0.533216
0.138850
0.134411
0.787674
0.138875
0.127886
0.138875
0.138850
0.788374
0.809015
0.127803
0.275328
0.134411
0.787687
0.787723
0.127865
0.127886
0.138823
0.787701
0.138864
0.787723
0.127907
0.787721
0.128337
0.138858
0.127857
0.138875
0.127809
0.793112
0.138795
0.787781
0.134411
0.138795
0.127907
0.127803
0.127841
0.127803
0.127802
0.138858
0.127868
0.138828
0.138875
0.127891
0.138823
0.138850
0.788374
0.208876
0.127866
0.787729
0.787681
0.275266
0.127855
0.787350
0.275328
0.127803
0.138864
0.787633
0.787668
0.788374
0.127794
0.787794
0.787706
0.787902
0.185979
0.138916
0.275328
0.127849
0.127793
0.808935
0.787711
0.138875
0.138914
0.127838
0.138905
0.127803
0.787681
0.128337
0.127857
0.138814
0.127793
0.787746
0.138858
0.138889
0.787722
0.722451
0.275303
0.127868
0.787690
0.138823
0.138823
0.128337
0.127849
0.138823
0.127789
0.127876
0.787723
0.127849
0.787553
0.793112
0.138888
0.787780
0.138823
0.127857
0.793112
0.127865
0.127794
0.127849
0.138884
0.134411
0.787178
0.787620
0.127841
0.787719
0.127838
0.788648
0.127857
0.138822
0.138875
0.275241
0.788374
0.787382
0.132473
0.127868
0.138875
0.127789
0.138847
0.787570
0.127907
0.787711
0.127802
0.138823
0.138905
0.138814
0.127907
0.275328
0.138847
0.127907
0.787679
0.275328
0.787620
0.369877
0.127789
0.138858
0.127855
0.138916
0.787670
0.127876
0.127841
0.275261
0.787460
0.127855
0.138916
0.127803
0.127849
0.717962
0.128021
0.127857
0.138889
0.138875
0.138875
0.787756
0.127789
0.275328
0.138839
0.722451
0.138889
0.127857
0.787681
0.787766
0.127815
0.787805
0.787457
0.788374
0.127838
0.138875
0.127793
0.275367
0.138888
0.127803
0.138823
0.787681
0.127803
0.138850
0.787681
0.138875
0.138884
0.275328
0.802503
0.275328
0.138858
0.127838
0.275246
0.788374
0.138884
0.787794
0.787794
0.127841
0.806441
0.138900
0.275344
0.127855
0.127806
0.787681
0.127868
0.127806
0.787799
0.127815
0.787681
0.275328
0.127857
0.138823
0.127886
0.787770
0.787750
0.275328
0.127793
0.275328
0.176019
0.127806
0.787593
0.127855
0.787494
0.127794
0.127865
0.127802
0.787855
0.127809
0.127868
0.138864
0.134411
0.788374
0.787793
0.787681
0.138875
0.127803
0.275328
0.127794
0.138853
0.787788
0.127855
0.127876
0.138823
0.127806
0.127868
0.134411
0.138858
0.127868
0.787715
0.787695
0.787587
0.138900
0.787681
0.127838
0.208980
0.787617
0.127841
0.138850
0.138875
0.176019
0.185979
0.787770
0.127803
0.138853
0.127793
0.787333
0.127789
0.138888
0.787752
0.134411
0.127838
0.128337
0.127958
0.138905
0.275328
0.788374
0.787733
0.138853
0.787636
0.127891
0.138888
0.717962
0.138905
0.127882
0.127849
0.127868
0.138814
0.138858
0.788374
0.787703
0.787692
0.127793
0.787721
0.275367
0.127803
0.127907
0.787712
0.787453
0.127857
0.127803
0.787620
0.127886
0.788374
0.808527
0.127803
0.787657
0.275328
0.275328
0.127876
0.127803
0.138875
0.127891
0.787692
0.138823
0.138795
0.138823
0.127806
0.127794
0.127891
0.787627
0.787760
0.127891
0.787668
0.127891
0.787676
0.138875
0.127806
0.788374
0.138839
0.127794
0.127838
0.138823
0.787617
0.208848
0.138875
0.138864
0.127884
0.138888
0.138839
0.787906
0.138828
0.127809
0.138858
0.787810
0.128337
0.275328
0.127907
0.275328
0.138884
0.787685
0.788374
0.132473
0.127838
0.138875
0.138888
0.127789
0.787681
0.208980
0.787704
0.787382
0.138900
0.138814
0.788374
0.127884
0.138795
0.787646
0.138875
0.138900
0.127871
0.787685
0.138875
0.127891
0.138888
0.138875
0.138847
0.127907
0.369877
0.138823
0.787681
0.128337
0.138823
0.127794
0.128337
0.787191
0.787668
0.790561
0.134411
0.127789
0.127882
0.127891
0.127876
0.275328
0.185979
0.138828
0.127806
0.127789
0.127865
0.127865
0.295871
0.127865
0.127815
0.127865
0.127803
0.787695
0.138888
0.275328
0.787673
0.794441
0.138914
0.787789
0.127857
0.787906
0.138836
0.793112
0.127803
0.128337
0.128021
0.138905
0.787810
0.128337
0.127803
0.138884
0.788374
0.208998
0.127958
0.127803
0.127891
0.127866
0.788374
0.127857
0.127891
0.787766
0.787657
0.793112
0.138858
0.127809
0.209009
0.806441
0.787681
0.787457
0.127958
0.787681
0.787681
0.138888
0.787780
0.127891
0.787728
0.138828
0.788374
0.275421
0.127884
0.138823
0.787681
0.127865
0.138823
0.788374
0.138900
0.138823
0.208848
0.138847
0.138858
0.208980
0.138853
0.127802
0.787620
0.127838
0.138875
0.787770
0.787633
0.787728
0.138905
0.275328
0.794441
0.138828
0.138875
0.127868
0.787721
0.127789
0.138900
0.127806
0.787603
0.138823
0.127838
0.787793
0.787682
0.138868
0.127803
0.787681
0.138858
0.787761
0.787805
0.127866
0.127841
0.787635
0.127803
0.138836
0.138795
0.127855
0.127806
0.127866
0.127868
0.787288
0.275328
0.138823
0.787753
0.128337
0.127789
0.128337
0.275380
0.127806
0.138828
0.127806
0.787735
0.128337
0.138823
0.128337
0.275348
0.138828
0.127809
0.787668
0.138875
0.787760
0.787632
0.127876
0.127958
0.127803
0.787788
0.127865
0.787633
0.138850
0.127802
0.787668
0.138823
0.127857
0.127865
0.185979
0.127806
0.787745
0.127838
0.788085
0.127871
0.138858
0.127907
0.787681
0.127855
0.138875
0.134411
0.127841
0.127891
0.127884
0.127891
0.787706
0.138889
0.127793
0.788374
0.209009
0.787770
0.793112
0.275396
0.127806
0.275328
0.128337
0.138847
0.138858
0.138823
0.127855
0.138858
0.127865
0.787632
0.138892
0.138888
0.138888
0.787682
0.787340
0.138850
0.275328
0.787729
0.138836
0.127849
0.138900
0.138914
0.788374
0.127886
0.138875
0.127882
0.127806
0.127789
0.127855
0.787340
0.275328
0.127882
0.787805
0.787668
0.127803
0.127794
0.127882
0.771831
0.787668
0.127855
0.787632
0.127849
0.788242
0.138889
0.132797
0.127891
0.138900
0.787793
0.138822
0.787715
0.787553
0.208848
0.138814
0.138888
0.138868
0.787685
0.787800
0.128337
0.787715
0.787681
0.787681
0.127809
0.128337
0.134411
0.787635
0.138823
0.127866
0.127809
0.127794
0.787704
0.138868
0.127865
0.787718
0.787681
0.127907
0.275328
0.208848
0.138875
0.138823
0.138875
0.127838
0.176019
0.127815
0.787681
0.787286
0.138858
0.787794
0.275351
0.127809
0.138858
0.275742
0.275328
0.127809
0.787704
0.788374
0.127857
0.788374
0.787738
0.127849
0.787617
0.127855
0.138795
0.138828
0.138823
0.127806
0.127806
0.138888
0.138875
0.138875
0.138850
0.138900
0.127794
0.127789
0.127891
0.787793
0.369877
0.275363
0.138892
0.127907
0.138823
0.138850
0.185979
0.138875
0.134411
0.127793
0.275314
0.275328
0.138823
0.138858
0.127868
0.138795
0.788374
0.127803
0.138888
0.127803
0.127891
0.787732
0.787794
0.127794
0.127849
0.127857
0.127866
0.138889
0.787681
0.787729
0.209009
0.127789
0.208980
0.788374
0.138875
0.127806
0.787719
0.275328
0.127841
0.787699
0.787703
0.138875
0.787485
0.127865
0.127868
0.138847
0.138822
0.127809
0.787340
0.127841
0.788374
0.787674
0.138828
0.138823
0.127866
0.787760
0.138875
0.138823
0.275328
0.796165
0.787902
0.275282
0.808999
0.127809
0.138858
0.138847
0.127868
0.127803
0.787759
0.788085
0.787715
0.138916
0.138795
0.127793
0.787708
0.788374
0.787800
0.127849
0.787812
0.127857
0.127806
0.208988
0.275328
0.138823
0.787584
0.138864
0.138888
0.787752
0.787712
0.127838
0.127793
0.127809
0.127806
0.127907
0.127838
0.788374
0.208876
0.788374
0.787681
0.138888
0.138892
0.138847
0.138853
0.138905
0.138839
0.787394
0.435282
0.275328
0.138858
0.787750
0.127793
0.127789
0.787681
0.127809
0.127803
0.533216
0.127793
0.808906
0.787718
0.138822
0.275328
0.787729
0.127849
0.787681
0.127809
0.275328
0.127803
0.127841
0.127907
0.127866
0.138888
0.138875
0.127849
0.127868
0.787620
0.787729
0.127794
0.127789
0.138823
0.138875
0.787732
0.127891
0.127815
0.787735
0.208848
0.138888
0.138850
0.138795
0.127866
0.787681
0.138916
0.787161
0.127802
0.787633
0.787667
0.138858
0.127855
0.127882
0.138916
0.127794
0.138853
0.127891
0.275296
0.787681
0.138853
0.127841
0.138858
0.788374
0.808971
0.787681
0.275328
0.127849
0.796165
0.138847
0.275328
0.787746
0.138875
0.127789
0.787668
0.138823
0.808977
0.138875
0.787644
0.138823
0.138858
0.787794
0.127789
0.787761
0.138823
0.127876
0.127891
0.138875
0.793112
0.275328
0.138823
0.127849
0.138847
0.127803
0.134411
0.787668
0.275328
0.127865
0.208998
0.127841
0.127789
0.787751
0.127789
0.127876
0.788176
0.787635
0.134411
0.138858
0.787728
0.787681
0.787668
0.138892
0.138888
0.127907
0.127789
0.138823
0.127871
0.138822
0.132797
0.127789
0.206073
0.788374
0.127865
0.127806
0.127803
0.787703
0.128021
0.176019
0.127789
0.787635
0.127803
0.138864
0.127841
0.127806
0.138822
0.138888
0.127891
0.127855
0.138916
0.138858
0.127857
0.787723
0.127803
0.787704
0.787671
0.787678
0.138858
0.138875
0.127806
0.138875
0.127855
0.787731
0.127806
0.138916
0.127865
0.127865
0.134411
0.176019
0.127794
0.787711
0.787721
0.138892
0.127802
0.127806
0.127841
0.787750
0.138864
0.138814
0.275413
0.533216
0.127841
0.468273
0.128337
0.127855
0.717962
0.128337
0.787674
0.127884
0.787505
0.787740
0.128337
0.138884
0.787738
0.275386
0.127838
0.127841
0.127794
0.138888
0.138875
0.138823
0.295871
0.138858
0.787668
0.127891
0.138823
0.787681
0.138858
0.787770
0.787752
0.787752
0.787751
0.138858
0.138888
0.127865
0.127806
0.127838
0.209386
0.787756
0.127876
0.128337
0.138875
0.138888
0.138814
0.138875
0.138850
0.127794
0.209386
0.787646
0.127838
0.127868
0.127891
0.127838
0.138814
0.127849
0.127806
0.787592
0.787668
0.138892
0.138823
0.127866
0.275396
0.787793
0.127876
0.808946
0.127802
0.127806
0.787681
0.138875
0.787668
0.787592
0.788374
0.127802
0.138858
0.208998
0.127866
0.138875
0.275328
0.787794
0.127838
0.275328
0.127789
0.788374
0.127865
0.127841
0.138823
0.127803
0.787633
0.127868
0.127838
0.127789
0.138875
0.127841
0.138864
0.138836
0.127958
0.787161
0.138916
0.127886
0.787633
0.787704
0.787752
0.127891
0.209386
0.787687
0.275328
0.138864
0.138814
0.127789
0.787681
0.138814
0.127809
0.787681
0.138875
0.787781
0.138864
0.787729
0.787685
0.127789
0.138875
0.138900
0.787733
0.138875
0.138868
0.275328
0.127841
0.127794
0.138884
0.787770
0.138888
0.134411
0.127802
0.127871
0.185979
0.138888
0.787752
0.138858
0.138858
0.138858
0.787513
0.138822
0.127803
0.138839
0.128337
0.127806
0.127891
0.127865
0.787810
0.787718
0.138858
0.788374
0.138822
0.788085
0.808669
0.128337
0.787161
0.128337
0.787767
0.127838
0.127855
0.127857
0.138868
0.127891
0.127868
0.127793
0.127838
0.787688
0.127891
0.138875
0.138888
0.787681
0.127865
0.787668
0.275263
0.127849
0.787681
0.127806
0.138823
0.127841
0.138823
0.127876
0.127849
0.208848
0.138875
0.138875
0.138875
0.127884
0.127794
0.127803
0.138823
0.787750
0.138875
0.787687
0.787241
0.787721
0.275328
0.127841
0.127958
0.176019
0.808946
0.788176
0.138875
0.127868
0.787654
0.787777
0.127868
0.138853
0.138858
0.128337
0.138822
0.127838
0.127958
0.138828
0.138858
0.138795
0.138875
0.127803
0.138875
0.138875
0.138888
0.127868
0.128337
0.787800
0.127803
0.138875
0.127809
0.127865
0.128337
0.127841
0.275328
0.127907
0.127866
0.127855
0.127803
0.127838
0.127865
0.787721
0.787681
0.138828
0.127803
0.787681
0.787657
0.138828
0.138875
0.209386
0.275324
0.787657
0.275328
0.208998
0.787740
0.275328
0.128337
0.275244
0.790561
0.127789
0.127806
0.127789
0.127841
0.787788
0.787553
0.138889
0.787793
0.787698
0.127841
0.138822
0.275324
0.138795
0.788374
0.138814
0.127802
0.787673
0.138847
0.138858
0.127907
0.127803
0.127838
0.138875
0.138888
0.787672
0.185979
0.138853
0.275328
0.541429
0.127891
0.788374
0.127855
0.138853
0.138900
0.787780
0.788374
0.138892
0.787766
0.138823
0.138875
0.788374
0.127838
0.787550
0.138875
0.787781
0.208988
0.127809
0.134411
0.138864
0.138828
0.787761
0.787657
0.787737
0.138828
0.127803
0.138836
0.717962
0.275328
0.128337
0.138823
0.138853
0.127849
0.138884
0.787405
0.787668
0.127802
0.138875
0.787750
0.128337
0.127806
0.787668
0.787668
0.128337
0.808838
0.206073
0.127806
0.127838
0.787745
0.138868
0.787740
0.209009
0.127838
0.138858
0.127841
0.787681
0.127793
0.787737
0.127866
0.533216
0.787668
0.127794
0.127793
0.787780
0.127815
0.787723
0.127866
0.787740
0.127803
0.787249
0.138858
0.138823
0.275328
0.787242
0.138875
0.127907
0.787617
0.138884
0.787711
0.787732
0.127865
0.127857
0.138823
0.127865
0.138839
0.128021
0.127793
0.275328
0.127871
0.787655
0.127809
0.127838
0.127803
0.788149
0.788374
0.127838
0.435282
0.787617
0.138900
0.138875
0.127806
0.138914
0.127958
0.127891
0.787780
0.787698
0.208876
0.127803
0.787592
0.127876
0.787780
0.275328
0.787697
0.806718
0.291136
0.127789
0.206073
0.787793
0.787681
0.128337
0.128337
0.127857
0.138875
0.138905
0.127849
0.275328
0.787708
0.138823
0.138858
0.208998
0.127849
0.787780
0.127806
0.127789
0.127803
0.127865
0.127866
0.127803
0.787755
0.787681
0.787794
0.787453
0.275328
0.127868
0.127806
0.127868
0.787699
0.127857
0.127789
0.787244
0.787654
0.127794
0.127838
0.138900
0.787804
0.793112
0.127886
0.138888
0.127789
0.138875
0.127794
0.138839
0.138868
0.127806
0.138850
0.788242
0.138828
0.138858
0.787699
0.369877
0.127806
0.138858
0.787752
0.138853
0.787785
0.787699
0.127849
0.127802
0.127855
0.132797
0.128337
0.138858
0.127794
0.788374
0.127803
0.127809
0.787699
0.127865
0.787751
0.127815
0.788374
0.127806
0.796165
0.138853
0.787799
0.127789
0.127841
0.127803
0.787635
0.138858
0.138864
0.138875
0.138875
0.128337
0.275328
0.787753
0.127806
0.787148
0.127802
0.787692
0.138888
0.787241
0.127871
0.787644
0.127857
0.138888
0.138858
0.127794
0.787822
0.127868
0.787677
0.132473
0.208848
0.138853
0.787752
0.127838
0.127794
0.787349
0.787288
0.787681
0.138822
0.138823
0.127907
0.787681
0.138868
0.127809
0.138814
0.127794
0.787760
0.138905
0.127841
0.138823
0.787662
0.206073
0.787633
0.275328
0.134411
0.138858
0.128337
0.138847
0.138853
0.787780
0.138888
0.127865
0.808669
0.138814
0.275328
0.127809
0.788085
0.138795
0.138858
0.138822
0.275328
0.787693
0.138916
0.127866
0.519036
0.138850
0.128337
0.127794
0.138900
0.127809
0.787681
0.138858
0.138875
0.787681
0.275328
0.787681
0.787115
0.138823
0.127809
0.127838
0.138884
0.788374
0.787681
0.787712
0.138884
0.127806
0.138875
0.787633
0.138888
0.127849
0.127794
0.138875
0.138868
0.127806
0.128337
0.127865
0.787643
0.138850
0.127803
0.127838
0.127838
0.127841
0.435282
0.127857
0.127849
0.787723
0.127841
0.127793
0.138868
0.134411
0.127871
0.127806
0.127803
0.127806
0.128337
0.138853
0.127838
0.808946
0.127838
0.127891
0.127886
0.127841
0.127794
0.787633
0.128337
0.127907
0.138858
0.787766
0.790561
0.787671
0.787681
0.127838
0.787681
0.787810
0.793588
0.127793
0.787657
0.127868
0.127876
0.808946
0.787714
0.787300
0.275328
0.127838
0.138823
0.435282
0.185979
0.128337
0.127868
0.787697
0.127855
0.128337
0.788374
0.787706
0.787729
0.127794
0.787700
0.138828
0.788374
0.127868
0.138823
0.787694
0.134411
0.138905
0.787780
0.787668
0.275328
0.127891
0.127891
0.127884
0.127865
0.185979
0.787191
0.138900
0.787690
0.127865
0.760575
0.127907
0.409129
0.185979
0.787155
0.138823
0.787770
0.127838
0.787681
0.138822
0.127789
0.127868
0.275328
0.138836
0.208980
0.808935
0.787729
0.208876
0.127802
0.787668
0.127803
0.208998
0.138916
0.787699
0.127891
0.787697
0.138828
0.787780
0.127865
0.208876
0.127838
0.128337
0.138853
0.138858
0.787750
0.208876
0.127806
0.787704
0.138828
0.787800
0.138822
0.787906
0.138884
0.808948
0.788374
0.128337
0.787799
0.127838
0.138828
0.138847
0.809060
0.787681
0.138888
0.127868
0.787692
0.127958
0.787793
0.138839
0.206073
0.138864
0.138823
0.138914
0.787781
0.128337
0.787710
0.127849
0.134411
0.138905
0.134411
0.787777
0.127806
0.127838
0.138889
0.787681
0.208988
0.275328
0.787780
0.787767
0.134411
0.127793
0.138888
0.128337
0.787780
0.808935
0.138822
0.127803
0.787642
0.138823
0.127866
0.127803
0.127789
0.138888
0.128337
0.787681
0.787699
0.138884
0.127868
0.138875
0.787657
0.127855
0.127794
0.128337
0.808997
0.809015
0.208876
0.128337
0.127806
0.138914
0.127794
0.127841
0.127886
0.127806
0.788374
0.138858
0.127806
0.134411
0.127907
0.793112
0.138795
0.127891
0.138823
0.127884
0.138858
0.787732
0.533216
0.127802
0.127838
0.127794
0.808971
0.275233
0.127841
0.796165
0.127876
0.127868
0.127789
0.138822
0.138853
0.788374
0.787668
0.127849
0.533216
0.138822
0.275246
0.788374
0.787752
0.127891
0.138868
0.132473
0.127907
0.127838
0.127855
0.138828
0.127802
0.138823
0.787799
0.138823
0.127866
0.138850
0.127884
0.127849
0.138875
0.127868
0.138900
0.132797
0.134411
0.127838
0.787732
0.787494
0.787692
0.787115
0.787249
0.787700
0.127802
0.138823
0.127958
0.771831
0.787668
0.787632
0.138853
0.138858
0.275328
0.809060
0.788374
0.127891
0.127865
0.787681
0.127806
0.787751
0.138905
0.787780
0.138853
0.787789
0.138875
0.127789
0.138900
0.788374
0.787800
0.127857
0.127794
0.787800
0.138858
0.127958
0.208980
0.128021
0.209009
0.138847
0.787632
0.127841
0.787780
0.127794
0.134411
0.127809
0.127789
0.138823
0.138858
0.127806
0.127803
0.533216
0.127841
0.134411
0.788374
0.127871
0.127809
0.138888
0.138858
0.127815
0.138828
0.138858
0.134411
0.138823
0.127855
0.138875
0.787755
0.138823
0.787789
0.127793
0.127838
0.275328
0.787745
0.127806
0.787694
0.127871
0.127868
0.138875
0.127855
0.127868
0.127884
0.127884
0.275348
0.176019
0.138858
0.138868
0.138850
0.127803
0.787677
0.127871
0.138814
0.127891
0.138875
0.138823
0.127841
0.127794
0.138823
0.127815
0.127866
0.138823
0.796165
0.787750
0.127865
0.787349
0.127802
0.787457
0.808916
0.127857
0.127876
0.275328
0.784639
0.127803
0.208980
0.138850
0.128337
0.127866
0.787700
0.796165
0.138850
0.138914
0.138892
0.787712
0.138875
0.127803
0.134411
0.128337
0.138888
0.127868
0.138836
0.275305
0.138889
0.138822
0.127891
0.208876
0.127806
0.127809
0.787721
0.127868
0.138905
0.787681
0.127866
0.787753
0.788374
0.127838
0.138858
0.788374
0.800572
0.138888
0.138847
0.788374
0.127794
0.127794
0.787668
0.787457
0.138875
0.138823
0.127857
0.127815
0.128337
0.787485
0.127815
0.275266
0.788374
0.127868
0.127838
0.787654
0.138823
0.138858
0.138858
0.138839
0.468273
0.787750
0.138828
0.127802
0.127803
0.787692
0.787681
0.788374
0.138823
0.176019
0.275356
0.127866
0.127891
0.787681
0.127841
0.138814
0.127876
0.787687
0.138892
0.127838
0.127838
0.127841
0.787780
0.127855
0.138916
0.787701
0.788374
0.127907
0.138900
0.127855
0.127838
0.127871
0.127793
0.127794
0.138814
0.787123
0.138853
0.787692
0.127806
0.127794
0.127794
0.138875
0.275323
0.127806
0.127868
0.127891
0.787701
0.138823
0.275328
0.127891
0.275396
0.277076
0.275328
0.138864
0.787761
0.796165
0.717962
0.788374
0.127849
0.128021
0.127882
0.787668
0.127841
0.127857
0.134411
0.134411
0.127789
0.275421
0.275328
0.138875
0.787810
0.787681
0.787712
0.127907
0.176019
0.138858
0.787805
0.127849
0.138858
0.275328
0.787777
0.138823
0.127803
0.138914
0.808903
0.127815
0.787681
0.127855
0.138823
0.127806
0.127865
0.134411
0.138858
0.127793
0.127865
0.127882
0.275328
0.127891
0.127866
0.127868
0.208876
0.798515
0.787736
0.275328
0.138858
0.127868
0.138914
0.138868
0.185979
0.127891
0.208998
0.127803
0.127789
0.127838
0.208998
0.127789
0.127907
0.787800
0.127849
0.787732
0.787756
0.127806
0.788374
0.138868
0.275367
0.138823
0.787340
0.788374
0.138858
0.208988
0.138888
0.138864
0.409129
0.127806
0.787695
0.128337
0.138836
0.788374
0.127865
0.127884
0.138875
0.127891
0.275328
0.788374
0.787710
0.787681
0.760575
0.127891
0.808971
0.127882
0.127868
0.138828
0.127882
0.787732
0.138814
0.138847
0.275328
0.127868
0.275396
0.128337
0.127868
0.787617
0.127868
0.138823
0.275328
0.208988
0.128337
0.208988
0.808977
0.787780
0.787799
0.275328
0.138853
0.787699
0.138858
0.275305
0.138850
0.787721
0.128337
0.127868
0.760575
0.127793
0.794441
0.802503
0.787765
0.138822
0.127866
0.275328
0.787690
0.787281
0.138847
0.787751
0.127803
0.127891
0.127806
0.127884
0.127857
0.787780
0.138828
0.787794
0.128021
0.369877
0.127803
0.138858
0.772338
0.138875
0.127907
0.275281
0.208848
0.808669
0.127809
0.127838
0.138864
0.787738
0.808948
0.787902
0.127849
0.138853
0.787674
0.787680
0.127855
0.789762
0.138905
0.787746
0.127789
0.127871
0.132797
0.127789
0.127857
0.127806
0.127803
0.787681
0.275328
0.138823
0.127882
0.138839
0.275328
0.787780
0.788374
0.127868
0.209386
0.787698
0.788176
0.127849
0.127907
0.138864
0.127794
0.127793
0.127809
0.138875
0.787712
0.787902
0.787644
0.787657
0.138858
0.787681
0.138875
0.127876
0.127907
0.138875
0.138823
0.127838
0.138795
0.127882
0.138875
0.138858
0.127849
0.127891
0.127866
0.127789
0.771831
0.717962
0.127891
0.808935
0.787853
0.127809
0.127803
0.127806
0.127809
0.138814
0.128337
0.787718
0.127866
0.138858
0.787740
0.138889
0.127891
0.138850
0.787902
0.787699
0.787780
0.788009
0.138905
0.138875
0.787242
0.138858
0.138828
0.127857
0.127855
0.138850
0.176019
0.127803
0.787635
0.127794
0.208848
0.127891
0.209386
0.138823
0.138822
0.127838
0.127865
0.138858
0.796165
0.127803
0.127891
0.138795
0.275328
0.787751
0.127865
0.138892
0.787681
0.138823
0.787681
0.127838
0.127868
0.138875
0.127803
0.127876
0.134411
0.127855
0.206073
0.787721
0.138875
0.176019
0.138875
0.787692
0.127806
0.772338
0.127958
0.138828
0.788374
0.787692
0.787788
0.787587
0.806441
0.127793
0.127891
0.138888
0.138892
0.787794
0.208980
0.138900
0.703624
0.127866
0.208998
0.127794
0.127789
0.787750
0.127958
0.127866
0.127803
0.787681
0.787776
0.127794
0.138814
0.185979
0.138858
0.127838
0.127891
0.788374
0.787753
0.138836
0.138875
0.127876
0.127866
0.209009
0.127789
0.787703
0.138888
0.787794
0.787805
0.787681
0.787668
0.138875
0.208848
0.127789
0.128337
0.138850
0.138875
0.787712
0.717962
0.127789
0.127882
0.127855
0.127868
0.127884
0.787698
0.128337
0.127803
0.138888
0.787690
0.128337
0.787718
0.127866
0.275256
0.138858
0.127855
0.127855
0.127789
0.138850
0.128337
0.127866
0.208980
0.127886
0.138914
0.138828
0.127865
0.787703
0.127838
0.132797
0.127802
0.787751
0.127891
0.787810
0.127838
0.127876
0.787692
0.787692
0.127794
0.127838
0.127789
0.127866
0.787692
0.132797
0.787695
0.787668
0.127871
0.138823
0.127886
0.127866
0.127815
0.787692
0.787752
0.787736
0.132797
0.138888
0.787794
0.138905
0.206073
0.127794
0.138823
0.787719
0.127865
0.138892
0.138868
0.127803
0.127803
0.127794
0.128337
0.127868
0.788374
0.275328
0.127907
0.127803
0.127884
0.295871
0.787718
0.787718
0.788374
0.138875
0.138853
0.127865
0.127803
0.809043
0.127789
0.134411
0.787788
0.138828
0.275328
0.127865
0.127803
0.138858
0.138853
0.127806
0.787681
0.787788
0.127794
0.138828
0.138823
0.787731
0.132473
0.127803
0.176019
0.772338
0.138905
0.138888
0.128337
0.275266
0.138853
0.127891
0.138888
0.787738
0.138858
0.138875
0.138823
0.787668
0.127876
0.127803
0.138858
0.208988
0.132797
0.787718
0.132473
0.127841
0.787721
0.787693
0.138892
0.787723
0.127809
0.787735
0.787654
0.127855
0.127794
0.127855
0.127886
0.134411
0.787703
0.209009
0.127868
0.127802
0.127891
0.138823
0.208848
0.127865
0.787750
0.787752
0.127866
0.787685
0.127803
0.788149
0.138875
0.787692
0.127793
0.787635
0.787799
0.808948
0.127794
0.787740
0.138884
0.127789
0.127891
0.127841
0.127803
0.787752
0.127803
0.127802
0.787662
0.127789
0.127857
0.809012
0.127789
0.128337
0.127857
0.787721
0.138823
0.127806
0.127907
0.138888
0.787799
0.138900
0.138823
0.787691
0.138823
0.209386
0.788176
0.127806
0.127803
0.787822
0.787694
0.787805
0.127868
0.138875
0.127794
0.127907
0.138858
0.275314
0.127857
0.127806
0.208988
0.128021
0.127789
0.208848
0.788374
0.138875
0.127789
0.787217
0.787681
0.127806
0.208998
0.787780
0.808948
0.138853
0.275328
0.138828
0.138858
0.127849
0.127871
0.208848
0.138850
0.138847
0.138914
0.138884
0.132473
0.788374
0.138888
0.787673
0.128337
0.127865
0.138875
0.787777
0.138875
0.788374
0.127841
0.787668
0.787788
0.787714
0.138884
0.127857
0.138875
0.128337
0.787635
0.787722
0.138822
0.787632
0.127803
0.787679
0.138795
0.127958
0.138828
0.138823
0.127882
0.127802
0.127891
0.787722
0.787755
0.127886
0.127876
0.138823
0.127841
0.787728
0.138875
0.138884
0.787728
0.787800
0.127868
0.127789
0.134411
0.275328
0.787902
0.209009
0.127794
0.787781
0.787799
0.787692
0.128337
0.787617
0.138839
0.127789
0.138864
0.127882
0.138916
0.127907
0.787677
0.127882
0.787617
0.128021
0.787642
0.138858
0.138916
0.127866
0.127789
0.127868
0.127838
0.138847
0.275328
0.138888
0.127958
0.127789
0.127789
0.771831
0.787681
0.127806
0.138914
0.275328
0.138822
0.127871
0.787800
0.127866
0.138828
0.787668
0.138875
0.275305
0.787800
0.771831
0.138888
0.138875
0.787668
0.138850
0.127884
0.787759
0.127803
0.209009
0.787780
0.787667
0.127789
0.138864
0.206073
0.787631
0.127868
0.138823
0.275404
0.787681
0.787805
0.787760
0.138847
0.127958
0.134411
0.138905
0.127789
0.127857
0.787761
0.787681
0.787668
0.788374
0.208998
0.275328
0.127891
0.138836
0.138828
0.138858
0.138875
0.138850
0.127841
0.127891
0.127806
0.275296
0.127809
0.127891
0.138868
0.138853
0.127855
0.787681
0.127803
0.275328
0.787681
0.127849
0.787721
0.127803
0.138823
0.127871
0.127907
0.127891
0.127841
0.138900
0.275328
0.138822
0.787632
0.138823
0.127806
0.787524
0.787732
0.787681
0.787681
0.787617
0.127868
0.127803
0.132797
0.127855
0.275328
0.127793
0.127849
0.138868
0.275277
0.275328
0.132797
0.787788
0.787777
0.176019
0.787719
0.127838
0.127794
0.127789
0.808838
0.128337
0.787681
0.138884
0.127891
0.138888
0.787513
0.127789
0.787777
0.127855
0.138888
0.127891
0.138814
0.787642
0.127868
0.132797
0.127866
0.788374
0.787744
0.787738
0.787453
0.787644
0.138823
0.787587
0.787737
0.127891
0.127806
0.138795
0.127789
0.208848
0.787752
0.787805
0.128337
0.128021
0.138888
0.128337
0.787793
0.787789
0.138858
0.787712
0.796165
0.127868
0.127907
0.787777
0.132797
0.138795
0.138875
0.787681
0.127891
0.138839
0.275261
0.208876
0.134411
0.208988
0.138914
0.138828
0.138795
0.787694
0.138875
0.369877
0.128337
0.796165
0.138888
0.787513
0.138900
0.127866
0.138914
0.128021
0.788335
0.275233
0.717962
0.787710
0.275328
0.127855
0.275328
0.127866
0.127907
0.127806
0.138875
0.127841
0.787681
0.127865
0.127884
0.717962
0.138888
0.138905
0.127849
0.787752
0.138875
0.787751
0.787681
0.138875
0.138847
0.134411
0.787799
0.787657
0.127809
0.787723
0.787699
0.138850
0.127865
0.787441
0.127838
0.128337
0.138914
0.138888
0.127891
0.787677
0.275328
0.185979
0.788374
0.127815
0.809088
0.808971
0.127838
0.185979
0.138858
0.127794
0.787694
0.787739
0.127802
0.787241
0.787770
0.138900
0.127841
0.127803
0.138875
0.127806
0.787290
0.788374
0.138900
0.127806
0.138875
0.127891
0.138828
0.787736
0.787770
0.138888
0.127838
0.127789
0.787738
0.134411
0.127849
0.787633
0.138853
0.138850
0.127794
0.275301
0.206073
0.127803
0.788374
0.138853
0.127841
0.138858
0.127809
0.275233
0.132797
0.787780
0.138884
0.127794
0.787617
0.127865
0.127855
0.138847
0.127794
0.275262
0.788374
0.784639
0.127868
0.185979
0.138823
0.127838
0.787681
0.138875
0.127849
0.787737
0.787668
0.138858
0.138888
0.787635
0.787704
0.127806
0.209386
0.138858
0.138892
0.127789
0.787405
0.138892
0.138828
0.127838
0.208876
0.208988
0.127838
0.275328
0.787457
0.787657
0.138839
0.787712
0.138828
0.132473
0.787681
0.275363
0.533216
0.127806
0.127855
0.275328
0.788374
0.275328
0.138823
0.787793
0.127809
0.138889
0.208876
0.127891
0.787633
0.138892
0.208980
0.138864
0.138858
0.127794
0.127857
0.787752
0.138814
0.127876
0.127806
0.127809
0.127802
0.127868
0.127855
0.787617
0.138839
0.127789
0.809088
0.127803
0.127789
0.275328
0.127794
0.127857
0.127891
0.127803
0.809060
0.787657
0.127803
0.128337
0.787657
0.275328
0.127891
0.208876
0.787733
0.127865
0.787735
0.787654
0.138823
0.787681
0.138892
0.787333
0.138905
0.787681
0.128337
0.138875
0.787773
