0.139938
0.790334
0.791036
0.139854
0.128602
0.277429
0.790274
0.128669
0.128658
0.139821
0.209272
0.790287
0.128696
0.790606
0.790385
0.790299
0.790433
0.789863
0.139938
0.128670
0.790370
0.139884
0.139854
0.790305
0.128637
0.129099
0.128725
0.128617
0.139842
0.128746
0.209282
0.789799
0.209272
0.139831
0.128520
0.128634
0.139884
0.139868
0.128725
0.128602
0.277420
0.139931
0.128637
0.128669
0.128617
0.790299
0.277501
0.128717
0.139902
0.790375
0.128637
0.284891
0.277420
0.139874
0.139884
0.139842
0.209433
0.128670
0.790362
0.128659
0.277420
0.128693
0.128622
0.209286
0.139842
0.189134
0.128677
0.139889
0.139842
0.128620
0.209055
0.128637
0.128670
0.128654
0.128620
0.128670
0.128659
0.209286
0.139858
0.139910
0.790373
0.128622
0.128659
0.789737
0.148004
0.128693
0.139831
0.128716
0.790618
0.128746
0.793534
0.790268
0.789865
0.197096
0.128659
0.139910
0.128620
0.790392
0.790299
0.139884
0.139854
0.790466
0.139884
0.790302
0.277451
0.139854
0.139856
0.189134
0.139821
0.128602
0.139884
0.209286
0.790362
0.128520
0.128716
0.130044
0.128602
0.128637
0.789799
0.139842
0.129099
0.808632
0.128634
0.128654
0.139889
0.805401
0.790421
0.128520
0.790236
0.128634
0.791036
0.790299
0.790375
0.128620
0.128717
0.139842
0.128670
0.128644
0.139910
0.128520
0.139884
0.139874
0.128732
0.139884
0.128717
0.139884
0.790375
0.790375
0.209286
0.128693
0.209463
0.209055
0.128520
0.139842
0.128725
0.139884
0.277420
0.139889
0.128602
0.128670
0.790288
0.790467
0.277420
0.277503
0.128746
0.139842
0.790322
0.790368
0.143109
0.786364
0.277420
0.790280
0.504073
0.209055
0.790396
0.128634
0.139854
0.790342
0.790302
0.128659
0.791036
0.277420
0.128696
0.139874
0.811075
0.139931
0.128617
0.139869
0.128634
0.148004
0.277465
0.128617
0.128520
0.128634
0.139889
0.139884
0.128658
0.128746
0.143109
0.128637
0.790682
0.790344
0.790418
0.811012
0.136327
0.277425
0.143109
0.790329
0.277501
0.808463
0.128709
0.790299
0.139842
0.143109
0.139884
0.790288
0.790375
0.807979
0.128746
0.790185
0.790299
0.790339
0.128620
0.790319
0.790299
0.148004
0.139854
0.128644
0.277420
0.139831
0.790394
0.139854
0.139884
0.790379
0.790344
0.128602
0.790410
0.790334
0.790353
0.209433
0.790299
0.128637
0.128717
0.129099
0.139842
0.790421
0.128620
0.139884
0.279340
0.791036
0.773740
0.790424
0.139842
0.128670
0.277420
0.776538
0.209272
0.209286
0.139874
0.128620
0.277420
0.129099
0.139821
0.209433
0.128693
0.128725
0.789816
0.790350
0.277335
0.128669
0.128717
0.128659
0.128659
0.128654
0.790332
0.790322
0.189134
0.128602
0.810983
0.139854
0.209286
0.139874
0.790355
0.277420
0.128659
0.139854
0.139831
0.139884
0.128637
0.790302
0.129099
0.720211
0.790467
0.790289
0.128670
0.128602
0.128637
0.790299
0.128634
0.129099
0.128746
0.128520
0.139889
0.811037
0.790392
0.128709
0.790353
0.277420
0.811080
0.790329
0.128615
0.139874
0.790323
0.128602
0.790392
0.143040
0.128732
0.139874
0.790236
0.790300
0.139854
0.790071
0.139842
0.139884
0.139878
0.790409
0.790375
0.790375
0.790276
0.790299
0.128669
0.790375
0.139854
0.128620
0.790299
0.790415
0.209433
0.790299
0.139884
0.790299
0.139874
0.128670
0.139856
0.128644
0.129099
0.139938
0.139842
0.128634
0.128617
0.139842
0.139884
0.128746
0.790305
0.139858
0.128746
0.139884
0.139874
0.791036
0.129099
0.790359
0.790302
0.139856
0.128658
0.789763
0.277420
0.139831
0.790370
0.128658
0.128637
0.790232
0.271501
0.139869
0.790388
0.749700
0.139842
0.139842
0.128658
0.790375
0.790310
0.139831
0.139874
0.790293
0.139878
0.128669
0.790323
0.139878
0.139884
0.790415
0.128670
0.139854
0.790299
0.139842
0.790299
0.128693
0.720211
0.128602
0.129099
0.790302
0.129099
0.139910
0.128659
0.790353
0.128602
0.139842
0.139874
0.129099
0.277308
0.790334
0.128717
0.139842
0.128658
0.139831
0.129099
0.139874
0.139884
0.139854
0.139831
0.139884
0.128622
0.128659
0.139874
0.790304
0.128670
0.129099
0.790302
0.128693
0.128520
0.128696
0.139842
0.790423
0.143109
0.790302
0.277420
0.808632
0.139842
0.128637
0.128620
0.790375
0.790396
0.128746
0.789834
0.791036
0.139854
0.139884
0.793534
0.189134
0.128659
0.139931
0.277362
0.790373
0.803115
0.139842
0.277362
0.128659
0.790330
0.128637
0.790440
0.209463
0.128520
0.128670
0.139902
0.790310
0.790336
0.790317
0.791036
0.139889
0.139868
0.128716
0.139868
0.128622
0.139858
0.790302
0.790270
0.277316
0.790375
0.790268
0.128622
0.789971
0.790440
0.209286
0.807417
0.790332
0.128670
0.790265
0.139868
0.128658
0.790299
0.128670
0.128637
0.128746
0.148004
0.128716
0.787695
0.789846
0.128620
0.128693
0.128520
0.129099
0.128677
0.791036
0.128647
0.139884
0.128669
0.128746
0.139842
0.128637
0.790302
0.128637
0.139884
0.139858
0.128658
0.128669
0.143109
0.790280
0.128615
0.787695
0.139884
0.790373
0.143040
0.128634
0.128669
0.189134
0.128520
0.139874
0.128637
0.128520
0.148004
0.139874
0.814290
0.789763
0.139856
0.791036
0.790392
0.277420
0.128520
0.139874
0.128617
0.139842
0.789873
0.128634
0.139821
0.128658
0.128647
0.790388
0.790317
0.209286
0.139854
0.790287
0.128696
0.790385
0.128617
0.128620
0.789799
0.277411
0.128677
0.791036
0.789865
0.128670
0.128622
0.790300
0.135217
0.793534
0.139902
0.128696
0.790299
0.128669
0.209272
0.139884
0.139874
0.790299
0.790268
0.129099
0.128602
0.790373
0.791036
0.128637
0.135217
0.790363
0.128620
0.139896
0.790160
0.139854
0.128617
0.128520
0.128658
0.139869
0.790302
0.128634
0.277420
0.128677
0.790409
0.793268
0.128647
0.128622
0.139896
0.129099
0.790340
0.139874
0.791036
0.790355
0.128654
0.139884
0.128669
0.776538
0.139884
0.128615
0.790323
0.790302
0.791036
0.139854
0.139842
0.128615
0.790021
0.789735
0.790305
0.128620
0.128622
0.139874
0.139821
0.128670
0.128634
0.139842
0.128746
0.139842
0.790350
0.209055
0.128693
0.795127
0.139938
0.277420
0.128634
0.128658
0.139854
0.209433
0.128696
0.139874
0.793534
0.128693
0.128717
0.139854
0.128647
0.139842
0.135217
0.790410
0.128659
0.277420
0.135217
0.139910
0.139902
0.139854
0.139874
0.139856
0.790373
0.128746
0.139874
0.128716
0.790388
0.790358
0.790311
0.128634
0.790423
0.139874
0.790373
0.139884
0.790606
0.277420
0.790344
0.277420
0.790318
0.129099
0.790401
0.803115
0.139842
0.790332
0.139938
0.808463
0.277420
0.128658
0.128602
0.128746
0.789934
0.139884
0.139858
0.128746
0.790299
0.790367
0.128746
0.277411
0.139910
0.128617
0.277420
0.128669
0.128658
0.128659
0.128620
0.128602
0.128620
0.128620
0.128677
0.209286
0.129099
0.139858
0.277478
0.139821
0.128670
0.128622
0.139874
0.139854
0.128746
0.128746
0.128520
0.277420
0.136327
0.810971
0.139902
0.128658
0.128717
0.139842
0.128520
0.287147
0.128634
0.128622
0.128659
0.790385
0.139874
0.128670
0.128520
0.139889
0.139938
0.790516
0.128602
0.128634
0.790410
0.789934
0.128520
0.790203
0.209433
0.790373
0.791036
0.277420
0.139874
0.135217
0.791036
0.143109
0.139874
0.128716
0.790420
0.197096
0.277420
0.128634
0.277420
0.139842
0.139872
0.139889
0.209433
0.790306
0.128602
0.143040
0.790358
0.197096
0.139931
0.790283
0.793534
0.128732
0.277415
0.128696
0.128669
0.128620
0.790276
0.139931
0.811028
0.135217
0.128670
0.790270
0.128602
0.139874
0.128717
0.128746
0.279340
0.790284
0.790212
0.790401
0.139874
0.128746
0.128669
0.128622
0.197096
0.790300
0.790398
0.790352
0.129099
0.790295
0.139858
0.128670
0.139869
0.128670
0.139874
0.790299
0.139842
0.128520
0.811040
0.128637
0.128746
0.139872
0.139931
0.791036
0.128669
0.790364
0.128602
0.209433
0.129099
0.277486
0.139842
0.128622
0.139854
0.790410
0.128677
0.139842
0.790618
0.139874
0.790682
0.128520
0.789740
0.139854
0.811049
0.277420
0.128602
0.139854
0.139854
0.128637
0.277420
0.139884
0.139854
0.128637
0.128669
0.790299
0.139874
0.795127
0.517745
0.790344
0.795449
0.139821
0.790347
0.128746
0.277486
0.139842
0.128658
0.209286
0.277420
0.129099
0.139842
0.139931
0.139858
0.791036
0.128669
0.790340
0.790216
0.128647
0.128746
0.128520
0.789735
0.128669
0.128602
0.139856
0.790302
0.139842
0.128696
0.139842
0.128670
0.128669
0.128602
0.139842
0.139872
0.135217
0.128746
0.128732
0.139842
0.790302
0.128615
0.790235
0.128669
0.139869
0.790334
0.790317
0.128693
0.128669
0.209433
0.790307
0.209055
0.790334
0.277420
0.776538
0.139874
0.128620
0.790310
0.128717
0.277415
0.277420
0.128746
0.139854
0.139831
0.128520
0.791036
0.790303
0.277386
0.139854
0.209282
0.790299
0.128696
0.209282
0.128647
0.790365
0.128739
0.128602
0.791760
0.790394
0.790409
0.790302
0.129099
0.128717
0.139902
0.139831
0.277420
0.209286
0.790396
0.791036
0.139884
0.128658
0.139821
0.136327
0.790268
0.790306
0.128746
0.128693
0.139884
0.139856
0.139874
0.790295
0.139874
0.128520
0.139854
0.128520
0.128659
0.129099
0.128670
0.277420
0.128669
0.128520
0.143040
0.139842
0.789763
0.128670
0.128696
0.139842
0.128622
0.790375
0.129099
0.139854
0.790329
0.790295
0.128670
0.128717
0.128670
0.128620
0.139902
0.209463
0.790135
0.128732
0.790238
0.789797
0.128725
0.790301
0.139868
0.790299
0.277420
0.790372
0.790346
0.139874
0.128620
0.139842
0.139884
0.128669
0.277420
0.139884
0.209242
0.139884
0.790299
0.128602
0.790372
0.128669
0.128746
0.139856
0.128620
0.136327
0.209433
0.128746
0.128637
0.277420
0.128617
0.790352
0.139854
0.790232
0.139854
0.790359
0.790300
0.139842
0.139854
0.790135
0.791036
0.139831
0.128746
0.641758
0.790342
0.128520
0.129099
0.128622
0.139874
0.135217
0.128520
0.791036
0.129099
0.128670
0.139854
0.790395
0.128634
0.790682
0.128637
0.128670
0.128615
0.791036
0.790270
0.128617
0.139874
0.139878
0.209272
0.128709
0.790302
0.128670
0.129099
0.128637
0.139938
0.128647
0.128696
0.789853
0.789799
0.139874
0.129099
0.143109
0.139896
0.128637
0.139884
0.277471
0.790299
0.128658
0.789716
0.128634
0.791036
0.139854
0.790302
0.139874
0.128746
0.128602
0.790288
0.790415
0.139931
0.790388
0.790353
0.139902
0.209286
0.790338
0.277320
0.143040
0.790299
0.128634
0.139868
0.128658
0.790335
0.139874
0.139874
0.129099
0.139884
0.139884
0.139884
0.128617
0.790302
0.139938
0.128717
0.139854
0.790332
0.790276
0.128654
0.790370
0.128716
0.128746
0.139872
0.139884
0.139854
0.720211
0.139872
0.209433
0.128622
0.128725
0.139910
0.790299
0.790293
0.128670
0.128615
0.139869
0.277420
0.139874
0.139821
0.790334
0.139831
0.128696
0.790121
0.790399
0.790217
0.641758
0.128620
0.128620
0.128620
0.128717
0.128644
0.790329
0.128696
0.130044
0.128634
0.790276
0.128620
0.790440
0.791036
0.128739
0.128637
0.790300
0.139831
0.790373
0.790299
0.128732
0.790370
0.139874
0.139874
0.139858
0.128669
0.135217
0.139884
0.139858
0.139884
0.139842
0.148004
0.139872
0.787695
0.139842
0.139874
0.139874
0.790268
0.139931
0.791036
0.128520
0.790373
0.129099
0.791036
0.128696
0.139869
0.789796
0.139842
0.128620
0.790293
0.139858
0.139821
0.128658
0.139896
0.128622
0.128622
0.189134
0.504073
0.790370
0.128520
0.139874
0.277420
0.790224
0.790276
0.139938
0.277420
0.189134
0.128670
0.277420
0.129099
0.128644
0.128644
0.135217
0.277420
0.790299
0.128677
0.139874
0.790274
0.811037
0.790401
0.128669
0.128637
0.139874
0.139854
0.139842
0.277420
0.790299
0.129099
0.128658
0.128520
0.128647
0.128637
0.139854
0.139842
0.128602
0.139874
0.128637
0.790376
0.128717
0.277472
0.790326
0.790236
0.128693
0.128520
0.128647
0.139868
0.128644
0.128637
0.139884
0.139854
0.796835
0.139854
0.128725
0.287147
0.139884
0.128520
0.789797
0.139902
0.139884
0.128520
0.277411
0.790358
0.793534
0.271501
0.139842
0.128746
0.128644
0.128670
0.790383
0.504073
0.139842
0.790334
0.139884
0.128669
0.143040
0.139842
0.128670
0.128637
0.128669
0.128637
0.128520
0.139842
0.209286
0.139884
0.139878
0.128746
0.128677
0.128746
0.790385
0.139842
0.790310
0.129099
0.128622
0.790299
0.148004
0.790295
0.790274
0.128520
0.790326
0.128637
0.139874
0.128520
0.128732
0.128602
0.791036
0.139868
0.139896
0.128693
0.790347
0.790178
0.139854
0.128696
0.277320
0.129099
0.128696
0.139856
0.128620
0.139854
0.790335
0.139884
0.790287
0.790340
0.135217
0.189134
0.139874
0.128615
0.128732
0.128746
0.790421
0.139854
0.129099
0.128617
0.129099
0.139858
0.209242
0.793534
0.139874
0.791200
0.128716
0.790323
0.139874
0.139821
0.790293
0.128520
0.790355
0.139854
0.790284
0.139874
0.129099
0.209242
0.790299
0.128617
0.277386
0.277420
0.790302
0.139884
0.139874
0.791036
0.128670
0.277420
0.139869
0.790386
0.139854
0.128622
0.790299
0.139854
0.277420
0.128617
0.128659
0.790375
0.128520
0.139874
0.139854
0.277420
0.128658
0.209055
0.209055
0.139878
0.139869
0.790373
0.128620
0.139931
0.814290
0.128620
0.787695
0.277335
0.139842
0.790135
0.790299
0.128637
0.128658
0.790386
0.139842
0.128520
0.139884
0.139896
0.128696
0.790299
0.790302
0.139896
0.791036
0.209463
0.129099
0.787695
0.128677
0.789796
0.139821
0.790445
0.128520
0.789716
0.136099
0.139938
0.128717
0.128520
0.128746
0.139854
0.791036
0.128520
0.789873
0.790304
0.128620
0.790284
0.139884
0.143040
0.128746
0.790344
0.277486
0.790392
0.139884
0.128696
0.139896
0.790357
0.139868
0.128693
0.790418
0.139910
0.128693
0.128696
0.790203
0.136327
0.139854
0.790344
0.128670
0.139931
0.128620
0.139889
0.209055
0.790375
0.139872
0.139854
0.128677
0.790299
0.128617
0.790268
0.128647
0.129099
0.139831
0.796835
0.790373
0.139854
0.129099
0.139874
0.139856
0.128659
0.790334
0.128620
0.129099
0.128670
0.139821
0.128709
0.139831
0.139884
0.128746
0.277420
0.139854
0.139872
0.139884
0.128670
0.139842
0.128669
0.128709
0.790385
0.139854
0.791036
0.135217
0.139869
0.139874
0.128644
0.789853
0.776538
0.139858
0.139874
0.139889
0.139874
0.128669
0.277308
0.139842
0.790302
0.136099
0.811183
0.209286
0.128637
0.128658
0.139856
0.790107
0.139854
0.139821
0.139831
0.209463
0.128647
0.139884
0.128634
0.790375
0.139842
0.139821
0.790334
0.128677
0.128520
0.790424
0.128602
0.128658
0.790578
0.139910
0.129099
0.128746
0.128622
0.135217
0.795127
0.139874
0.139842
0.790410
0.139884
0.277420
0.128620
0.128717
0.128725
0.790299
0.790299
0.128696
0.790388
0.128615
0.790299
0.790375
0.790268
0.790370
0.139856
0.128658
0.791036
0.790293
0.128658
0.128602
0.790375
0.790270
0.128659
0.128602
0.128622
0.128669
0.128659
0.129099
0.128620
0.135217
0.277420
0.790384
0.139874
0.808632
0.135217
0.139842
0.128670
0.128617
0.295703
0.277468
0.128617
0.790385
0.128644
0.790388
0.790313
0.790316
0.277420
0.209282
0.790310
0.790388
0.128620
0.128615
0.139821
0.277420
0.139896
0.128620
0.128520
0.128658
0.790334
0.139884
0.790310
0.143109
0.139842
0.277420
0.139931
0.790383
0.139896
0.277320
0.128658
0.128620
0.128696
0.128637
0.139842
0.139902
0.139854
0.277420
0.139889
0.128669
0.139874
0.136327
0.128658
0.790323
0.139884
0.783558
0.793534
0.128622
0.139884
0.209242
0.790330
0.209463
0.128696
0.277420
0.139874
0.139821
0.790299
0.139874
0.139884
0.277415
0.139874
0.790259
0.128602
0.277443
0.789865
0.128617
0.139842
0.128520
0.209055
0.128670
0.128637
0.128620
0.128677
0.139854
0.139872
0.128693
0.790308
0.790375
0.790386
0.128669
0.139910
0.139868
0.791036
0.139854
0.139869
0.811012
0.790215
0.277374
0.128746
0.139842
0.139884
0.277420
0.277509
0.128644
0.128659
0.128717
0.287147
0.139842
0.128696
0.790319
0.139874
0.277365
0.129099
0.129099
0.139910
0.128620
0.128644
0.128634
0.129099
0.790367
0.139854
0.128654
0.129099
0.790305
0.136327
0.128622
0.128670
0.139874
0.128696
0.128696
0.139854
0.277420
0.790401
0.128669
0.790432
0.277472
0.790323
0.139874
0.790203
0.790353
0.790516
0.139854
0.790160
0.139856
0.139842
0.808463
0.139842
0.790370
0.811037
0.790299
0.790021
0.790445
0.139854
0.128520
0.128725
0.139938
0.790342
0.790302
0.209286
0.790340
0.128669
0.277420
0.139884
0.128659
0.139874
0.139831
0.128658
0.139931
0.128634
0.139858
0.129099
0.209286
0.143040
0.128739
0.128637
0.790515
0.128746
0.790312
0.790287
0.128647
0.790275
0.139884
0.128693
0.790295
0.139938
0.791036
0.139842
0.139884
0.128647
0.277378
0.139872
0.139821
0.139874
0.790353
0.209272
0.790353
0.790363
0.139910
0.790287
0.277435
0.277420
0.277420
0.143109
0.143040
0.139854
0.128670
0.128659
0.277420
0.129099
0.139874
0.790456
0.209272
0.139874
0.139884
0.128670
0.128696
0.277297
0.790326
0.776538
0.790396
0.136327
0.139874
0.790299
0.209463
0.128634
0.139868
0.128617
0.139874
0.790323
0.209272
0.504073
0.139868
0.800128
0.128634
0.790295
0.139874
0.139874
0.128620
0.790299
0.128693
0.148004
0.128659
0.787695
0.790373
0.128520
0.128520
0.128602
0.279340
0.128670
0.790304
0.128732
0.128658
0.790021
0.277420
0.128732
0.139884
0.129099
0.129099
0.128658
0.139874
0.128615
0.128659
0.139842
0.790326
0.128637
0.128520
0.139884
0.128693
0.790302
0.790299
0.139938
0.790388
0.129099
0.128746
0.128746
0.128717
0.136327
0.810971
0.130044
0.787695
0.129099
0.139842
0.128669
0.129099
0.128677
0.128520
0.128637
0.139910
0.139854
0.790299
0.790317
0.641758
0.277420
0.128669
0.791036
0.790387
0.790299
0.790313
0.209286
0.790373
0.139842
0.790373
0.129099
0.139874
0.139938
0.139868
0.790311
0.128659
0.791036
0.789799
0.128669
0.128637
0.790275
0.139854
0.790302
0.790348
0.271501
0.139868
0.277362
0.807417
0.128658
0.128620
0.277420
0.128669
0.128622
0.790428
0.800128
0.277420
0.128637
0.129099
0.139931
0.139874
0.789846
0.277420
0.789737
0.128696
0.139874
0.128602
0.128637
0.128717
0.128620
0.790302
0.811040
0.128709
0.128647
0.139884
0.790618
0.139884
0.277420
0.129099
0.790440
0.790394
0.139856
0.791782
0.128670
0.139872
0.128670
0.148004
0.277316
0.504073
0.139842
0.136099
0.128669
0.128520
0.790363
0.790385
0.139884
0.143109
0.277392
0.139842
0.790302
0.139842
0.791036
0.128520
0.790375
0.128725
0.790370
0.128716
0.139842
0.139938
0.129099
0.139902
0.128669
0.136327
0.790386
0.128634
0.189134
0.790283
0.129099
0.128659
0.796835
0.807979
0.790287
0.139842
0.790362
0.128520
0.128520
0.128520
0.128677
0.790318
0.790302
0.790440
0.129099
0.128658
0.790091
0.139858
0.790329
0.128725
0.129099
0.139842
0.790299
0.277420
0.128620
0.790295
0.136099
0.128617
0.790238
0.792033
0.277420
0.139878
0.790061
0.128670
0.139854
0.128620
0.789716
0.128746
0.128634
0.128617
0.277420
0.790340
0.791782
0.128670
0.128669
0.790338
0.790373
0.771643
0.791782
0.128659
0.209433
0.128658
0.790329
0.128622
0.789873
0.790440
0.148004
0.128520
0.139884
0.128622
0.128746
0.139874
0.139842
0.209286
0.790372
0.128670
0.128637
0.139856
0.139854
0.128520
0.128658
0.139884
0.139896
0.128602
0.128620
0.128602
0.790375
0.209433
0.128620
0.788337
0.790401
0.790299
0.790363
0.139831
0.790274
0.139858
0.139831
0.790355
0.128637
0.139842
0.139842
0.209286
0.209242
0.790299
0.790388
0.128677
0.790283
0.128658
0.143109
0.807979
0.789846
0.139854
0.789836
0.128717
0.790288
0.128520
0.790160
0.128602
0.139884
0.790302
0.139902
0.139842
0.790391
0.128709
0.791036
0.377770
0.139872
0.139938
0.790275
0.139842
0.811075
0.128637
0.128746
0.791036
0.128746
0.277420
0.139842
0.128669
0.128669
0.128602
0.139868
0.790375
0.128620
0.128658
0.135217
0.139884
0.377770
0.794874
0.139874
0.139854
0.139854
0.128637
0.139821
0.139854
0.136327
0.277450
0.796835
0.139854
0.209282
0.271501
0.790398
0.811049
0.128602
0.139889
0.790302
0.128617
0.790330
0.128746
0.139858
0.135217
0.129099
0.790304
0.277420
0.128658
0.128717
0.139872
0.790308
0.128669
0.790578
0.139931
0.128669
0.791036
0.790044
0.139842
0.277420
0.136099
0.128602
0.143109
0.128746
0.790322
0.139821
0.790265
0.139842
0.128716
0.805631
0.139874
0.143109
0.787695
0.790299
0.128716
0.209463
0.790386
0.139938
0.128746
0.790385
0.789834
0.139854
0.128670
0.277420
0.139884
0.209463
0.790283
0.128659
0.209286
0.128637
0.209433
0.791036
0.139831
0.790299
0.790299
0.139902
0.128746
0.139884
0.790302
0.128617
0.128717
0.139842
0.795127
0.128602
0.790381
0.139854
0.139896
0.790289
0.790394
0.693277
0.128520
0.795127
0.139884
0.128677
0.790302
0.139874
0.139842
0.139831
0.791036
0.790203
0.789757
0.790287
0.128617
0.139896
0.128634
0.128647
0.128622
0.139842
0.139842
0.139874
0.791036
0.139902
0.713694
0.128617
0.790308
0.791760
0.790388
0.790373
0.128670
0.129099
0.139896
0.143109
0.128670
0.128637
0.139872
0.811012
0.128669
0.128746
0.139874
0.790302
0.139910
0.128622
0.790334
0.790300
0.128709
0.790440
0.128725
0.139902
0.790339
0.790305
0.790299
0.139854
0.277420
0.128520
0.139874
0.128602
0.128669
0.139884
0.129099
0.790302
0.128746
0.790284
0.790310
0.277297
0.790299
0.805401
0.128717
0.790385
0.139842
0.139842
0.790299
0.189134
0.128520
0.794862
0.790344
0.139910
0.128746
0.139874
0.128617
0.277420
0.139931
0.128670
0.139831
0.197096
0.128658
0.790302
0.129099
0.128637
0.791036
0.139874
0.128717
0.139902
0.128696
0.790355
0.789799
0.789846
0.139854
0.641758
0.139858
0.128654
0.128739
0.128725
0.139854
0.790399
0.129099
0.139896
0.139858
0.790299
0.277420
0.790388
0.128634
0.128637
0.128677
0.129099
0.790071
0.139842
0.139869
0.139831
0.128717
0.790375
0.139874
0.277420
0.128725
0.139842
0.189134
0.139910
0.277468
0.209433
0.128520
0.791052
0.128693
0.790299
0.791760
0.791036
0.139858
0.128620
0.139884
0.139854
0.811012
0.128617
0.128637
0.139854
0.277420
0.277436
0.139869
0.139884
0.790339
0.693277
0.128693
0.139872
0.128647
0.139902
0.128732
0.791036
0.128520
0.139821
0.790302
0.790265
0.128620
0.139874
0.128634
0.139854
0.790232
0.277362
0.790299
0.790388
0.790618
0.790373
0.790385
0.277316
0.128602
0.128644
0.789873
0.790202
0.128670
0.790418
0.790339
0.790355
0.128746
0.209272
0.139854
0.139874
0.148004
0.128620
0.139842
0.128670
0.790355
0.277420
0.790283
0.128634
0.790352
0.128716
0.790578
0.790370
0.139874
0.788337
0.128696
0.790332
0.790339
0.128644
0.139874
0.790283
0.143040
0.790363
0.139858
0.790028
0.139858
0.128622
0.790357
0.791036
0.128620
0.148004
0.139854
0.139884
0.130044
0.128617
0.128520
0.128622
0.139842
0.790283
0.128677
0.128670
0.128637
0.136327
0.143040
0.209282
0.148004
0.128647
0.783558
0.128647
0.197096
0.139889
0.277420
0.271501
0.128670
0.128622
0.139842
0.139872
0.790021
0.128659
0.129099
0.789799
0.128637
0.139889
0.139854
0.128746
0.128617
0.790388
0.277420
0.811037
0.790232
0.790324
0.135217
0.790370
0.128670
0.128725
0.139842
0.790338
0.128520
0.128670
0.139854
0.277420
0.128658
0.128746
0.776538
0.143040
0.790299
0.790418
0.128637
0.139874
0.139874
0.128647
0.791036
0.143040
0.128617
0.128716
0.139884
0.791036
0.139869
0.277431
0.811075
0.128716
0.790375
0.277345
0.128647
0.139902
0.128617
0.139874
0.139874
0.794874
0.790388
0.791036
0.791036
0.128717
0.790299
0.128717
0.128602
0.790334
0.128716
0.128658
0.209055
0.790347
0.143109
0.209055
0.139842
0.139874
0.790388
0.790342
0.128670
0.790381
0.790352
0.790387
0.790274
0.790409
0.790355
0.790302
0.277420
0.139842
0.139856
0.128658
0.790284
0.209463
0.789833
0.128670
0.139874
0.139831
0.128739
0.128647
0.277420
0.790306
0.128725
0.139931
0.128520
0.128634
0.139854
0.791036
0.128746
0.128637
0.128647
0.277420
0.128670
0.277420
0.209272
0.128746
0.128654
0.128693
0.136099
0.129099
0.128647
0.128669
0.139821
0.793268
0.189134
0.139874
0.790299
0.128622
0.128602
0.139884
0.139874
0.790236
0.790388
0.790334
0.139884
0.790203
0.790319
0.128622
0.790373
0.128677
0.790375
0.277509
0.128725
0.209463
0.128622
0.139874
0.139868
0.139874
0.789799
0.790299
0.139884
0.128647
0.129099
0.129099
0.139874
0.209433
0.128746
0.128717
0.128732
0.128709
0.139821
0.128620
0.271501
0.148004
0.128693
0.143109
0.128670
0.790299
0.128696
0.128520
0.136327
0.128739
0.139868
0.139821
0.139931
0.128620
0.790299
0.504073
0.197096
0.790335
0.139884
0.139821
0.139854
0.794874
0.791036
0.790340
0.790202
0.790352
0.128716
0.128725
0.139884
0.790319
0.139938
0.143109
0.790302
0.139869
0.128634
0.791036
0.128620
0.811679
0.128658
0.148004
0.790364
0.128746
0.139831
0.790302
0.129099
0.128622
0.139854
0.128732
0.790288
0.277420
0.128602
0.139854
0.128658
0.128693
0.790028
0.139874
0.209286
0.128670
0.128615
0.128620
0.139842
0.139872
0.148004
0.128620
0.139874
0.139884
0.790388
0.790682
0.128670
0.139869
0.139874
0.791036
0.789735
0.139842
0.128658
0.277420
0.128658
0.128637
0.143109
0.128746
0.128654
0.790299
0.128696
0.139854
0.128658
0.128696
0.139896
0.128617
0.277386
0.790421
0.128725
0.128620
0.139902
0.128716
0.790334
0.791036
0.277420
0.135217
0.139938
0.128670
0.139842
0.128647
0.790305
0.128647
0.790330
0.128677
0.139842
0.209242
0.790299
0.789816
0.790160
0.128669
0.790302
0.139872
0.139831
0.128669
0.128746
0.790289
0.128659
0.139874
0.790282
0.128746
0.139874
0.139874
0.128654
0.209463
0.790302
0.790299
0.143109
0.790375
0.128644
0.128693
0.790388
0.139902
0.139931
0.790373
0.790289
0.791036
0.277420
0.128670
0.128659
0.128658
0.776538
0.139884
0.790299
0.277497
0.139868
0.139856
0.128670
0.128520
0.143109
0.128669
0.790370
0.128644
0.128716
0.129099
0.139858
0.139854
0.128637
0.128520
0.139854
0.139874
0.128617
0.128615
0.128670
0.790344
0.790428
0.128658
0.277420
0.806447
0.790302
0.128637
0.790310
0.128658
0.128670
0.139854
0.139931
0.128520
0.139842
0.128746
0.136099
0.129099
0.128622
0.794874
0.128620
0.790299
0.139854
0.790269
0.148004
0.790299
0.139874
0.128746
0.128520
0.139896
0.128520
0.128658
0.128746
0.790395
0.128520
0.128746
0.790466
0.139842
0.128670
0.128620
0.790355
0.790121
0.128746
0.139874
0.128602
0.794862
0.128658
0.790274
0.277411
0.139842
0.790373
0.790401
0.790372
0.128717
0.128602
0.128677
0.128644
0.139889
0.128520
0.128602
0.790373
0.128617
0.128717
0.271501
0.128658
0.128696
0.128670
0.790352
0.128746
0.790396
0.139884
0.128716
0.790299
0.277497
0.128637
0.790305
0.139884
0.128670
0.128647
0.789796
0.790334
0.811040
0.128520
0.128520
0.128670
0.128602
0.143040
0.790334
0.128717
0.790299
0.128669
0.197096
0.787695
0.209282
0.128732
0.139872
0.789773
0.128602
0.803926
0.277365
0.791036
0.128717
0.790384
0.128669
0.776538
0.811034
0.791036
0.139854
0.790302
0.128670
0.139842
0.139874
0.277420
0.139856
0.790393
0.128644
0.128669
0.128746
0.139874
0.136327
0.128659
0.139874
0.128637
0.791036
0.209433
0.128637
0.143040
0.790346
0.128659
0.790299
0.139854
0.128637
0.790299
0.209272
0.139874
0.128620
0.128669
0.139854
0.128670
0.790392
0.128637
0.790332
0.128725
0.790036
0.128622
0.128670
0.128520
0.791036
0.139896
0.139856
0.790347
0.128739
0.789787
0.139874
0.277501
0.209282
0.277362
0.128732
0.128644
0.209463
0.128670
0.128620
0.790392
0.790352
0.128647
0.139831
0.790121
0.136327
0.277420
0.128746
0.139854
0.277465
0.791036
0.139856
0.790302
0.143109
0.128620
0.790302
0.128647
0.790334
0.808632
0.791036
0.128696
0.128725
0.277420
0.128520
0.139910
0.128746
0.790310
0.128634
0.129099
0.128617
0.128617
0.128654
0.128658
0.790370
0.128617
0.128693
0.128617
0.129099
0.139868
0.128520
0.128677
0.129099
0.139854
0.128670
0.789723
0.139884
0.139872
0.128659
0.791052
0.139874
0.790306
0.791036
0.128620
0.810970
0.789957
0.139872
0.790283
0.129099
0.790682
0.128644
0.128746
0.128717
0.277420
0.791036
0.139874
0.789834
0.790299
0.790305
0.128520
0.209055
0.139872
0.189134
0.790373
0.800128
0.790299
0.128670
0.128520
0.139854
0.128520
0.148004
0.128658
0.139872
0.790338
0.128634
0.790302
0.790355
0.790302
0.128670
0.209433
0.128696
0.811023
0.139872
0.128693
0.794874
0.139842
0.128669
0.128670
0.143109
0.790401
0.277321
0.128617
0.790344
0.139842
0.139842
0.139938
0.128658
0.128622
0.791036
0.790299
0.139884
0.136327
0.128658
0.128520
0.277486
0.790326
0.128617
0.791036
0.128615
0.128659
0.128677
0.790302
0.128602
0.128658
0.790295
0.790334
0.128669
0.790344
0.791036
0.139874
0.139858
0.139889
0.128520
0.128647
0.128732
0.128658
0.277501
0.790334
0.277316
0.128658
0.128716
0.790401
0.277420
0.139874
0.128669
0.128670
0.128693
0.128644
0.139910
0.128658
0.128634
0.139874
0.139896
0.693277
0.128658
0.139858
0.139872
0.143109
0.139910
0.139821
0.811012
0.790299
0.277443
0.128617
0.790375
0.139854
0.504073
0.790299
0.790375
0.189134
0.128622
0.128617
0.139878
0.209433
0.810970
0.129099
0.128620
0.128677
0.128739
0.789723
0.790091
0.790044
0.139854
0.128669
0.139858
0.128602
0.128677
0.139858
0.277421
0.790416
0.128658
0.128658
0.128746
0.128696
0.139842
0.790394
0.139889
0.790306
0.791036
0.139884
0.790578
0.128622
0.790299
0.209242
0.128696
0.790323
0.790236
0.139854
0.789863
0.128658
0.128602
0.128677
0.277420
0.139842
0.139884
0.135217
0.277420
0.139884
0.128717
0.791036
0.209463
0.128637
0.128716
0.790339
0.790307
0.790373
0.277420
0.790410
0.789796
0.789675
0.790401
0.790329
0.504073
0.787695
0.128725
0.128622
0.130044
0.790388
0.790323
0.128620
0.128647
0.128617
0.277356
0.128669
0.793534
0.277478
0.209282
0.128520
0.790385
0.139858
0.504073
0.790284
0.139854
0.128658
0.139842
0.791036
0.790364
0.790385
0.139831
0.791036
0.277420
0.128617
0.139884
0.790299
0.139854
0.128693
0.139831
0.139856
0.129099
0.128620
0.128637
0.139884
0.189134
0.148004
0.790283
0.128696
0.129099
0.790410
0.128520
0.791036
0.790312
0.790283
0.787695
0.790283
0.139931
0.128696
0.139889
0.789740
0.139856
0.277420
0.128520
0.277411
0.139842
0.139874
0.791036
0.128670
0.790392
0.128659
0.139874
0.128622
0.790334
0.790311
0.128520
0.139938
0.791036
0.128670
0.795127
0.136099
0.128637
0.790299
0.790308
0.139910
0.128739
0.790365
0.790456
0.139831
0.790276
0.139874
0.128622
0.790391
0.128617
0.128654
0.504073
0.790323
0.139842
0.791036
0.139938
0.790375
0.128647
0.139831
0.790283
0.136327
0.128677
0.139872
0.128669
0.790293
0.139872
0.790375
0.139842
0.790353
0.189134
0.128658
0.139874
0.139868
0.790274
0.139854
0.139854
0.139854
0.139868
0.129099
0.128717
0.139854
0.128520
0.128617
0.139858
0.128658
0.128716
0.139902
0.128669
0.128725
0.129099
0.790146
0.139842
0.139854
0.791036
0.800005
0.139842
0.128669
0.790326
0.139854
0.139884
0.128620
0.790370
0.139842
0.790338
0.148004
0.790295
0.128670
0.139831
0.129099
0.790203
0.139910
0.128644
0.139821
0.139884
0.209055
0.139858
0.287147
0.197096
0.790332
0.143040
0.139889
0.139874
0.139842
0.139884
0.139842
0.128620
0.791036
0.209242
0.790363
0.197096
0.790409
0.139938
0.135217
0.139869
0.790299
0.139858
0.277420
0.139874
0.790370
0.128602
0.128644
0.790375
0.128677
0.139821
0.790305
0.790367
0.790299
0.790299
0.139858
0.139884
0.139884
0.139854
0.277420
0.139858
0.139896
0.790275
0.128670
0.277420
0.128658
0.139884
0.128602
0.139869
0.790372
0.128637
0.139884
0.128669
0.139874
0.209282
0.277420
0.128670
0.197096
0.128602
0.790302
0.129099
0.139931
0.139938
0.139821
0.790317
0.790353
0.143040
0.790299
0.130044
0.790132
0.790385
0.790299
0.128746
0.128696
0.139842
0.790232
0.139842
0.139902
0.128647
0.128725
0.277451
0.139842
0.128637
0.128677
0.793534
0.808632
0.128622
0.139854
0.128634
0.790385
0.128725
0.790355
0.128709
0.790322
0.128644
0.128602
0.136327
0.139858
0.790375
0.139831
0.129099
0.128622
0.139910
0.128709
0.790428
0.139872
0.139856
0.209272
0.277468
0.139854
0.209433
0.139842
0.790346
0.790375
0.790300
0.128677
0.790373
0.790299
0.790340
0.209433
0.790375
0.790300
0.128670
0.139856
0.271501
0.139896
0.139884
0.139842
0.791036
0.139896
0.209433
0.139872
0.209272
0.790276
0.128746
0.790289
0.790310
0.790287
0.129099
0.128669
0.790388
0.128746
0.139902
0.790334
0.139856
0.814290
0.139821
0.129099
0.128669
0.139854
0.790456
0.791036
0.789863
0.790339
0.128658
0.128620
0.790334
0.811183
0.790280
0.790375
0.128669
0.790385
0.790238
0.128725
0.277443
0.129099
0.128637
0.277420
0.209286
0.790289
0.139854
0.209433
0.129099
0.128716
0.139884
0.789735
0.791036
0.139842
0.139842
0.128520
0.128658
0.791036
0.128670
0.129099
0.139872
0.128617
0.128696
0.790401
0.790363
0.139902
0.139884
0.277335
0.128654
0.139869
0.139931
0.130044
0.790440
0.128620
0.277471
0.789833
0.135217
0.790401
0.139854
0.139874
0.277420
0.139872
0.128520
0.790302
0.128644
0.139872
0.787695
0.790326
0.139938
0.139910
0.128725
0.790456
0.790375
0.128709
0.209242
0.139854
0.791036
0.128634
0.128693
0.139854
0.128617
0.790313
0.139842
0.128732
0.277420
0.128725
0.790305
0.790299
0.128634
0.277420
0.128620
0.128620
0.790317
0.209286
0.139842
0.789907
0.139842
0.776538
0.139874
0.128659
0.790299
0.790372
0.128520
0.277501
0.128746
0.128620
0.139874
0.139854
0.790036
0.791036
0.277512
0.277420
0.128620
0.128634
0.128725
0.128746
0.790316
0.136327
0.128725
0.139902
0.128717
0.128677
0.128620
0.128617
0.790044
0.790284
0.139884
0.209463
0.139869
0.277421
0.128634
0.641758
0.790370
0.790268
0.209282
0.128622
0.139874
0.139872
0.811679
0.139821
0.128634
0.790344
0.811028
0.128658
0.128520
0.139874
0.139831
0.128622
0.790299
0.128693
0.128670
0.139874
0.128670
0.139854
0.128620
0.139874
0.128520
0.128620
0.128677
0.139874
0.128716
0.277486
0.143040
0.271501
0.693277
0.139854
0.790308
0.139931
0.128658
0.277471
0.139884
0.790215
0.139869
0.128617
0.128669
0.139842
0.139896
0.790293
0.789767
0.790160
0.790401
0.790456
0.139872
0.139884
0.790346
0.811028
0.128647
0.790386
0.790323
0.277420
0.139869
0.128634
0.128637
0.139874
0.128732
0.790304
0.790618
0.136327
0.128620
0.128739
0.139884
0.128670
0.139902
0.128637
0.128696
0.128617
0.128659
0.128634
0.128647
0.128732
0.790394
0.139931
0.790294
0.289941
0.277362
0.128658
0.128725
0.128644
0.807979
0.790456
0.139842
0.277513
0.128622
0.790299
0.277420
0.139874
0.139874
0.791036
0.209272
0.139884
0.789675
0.776538
0.139884
0.277472
0.128644
0.128677
0.790302
0.128677
0.139854
0.128716
0.128622
0.128620
0.128716
0.128658
0.139854
0.790440
0.128670
0.790363
0.790332
0.128725
0.139889
0.128622
0.139872
0.139884
0.139874
0.129099
0.277503
0.139854
0.128696
0.148004
0.277420
0.128670
0.130044
0.128658
0.128677
0.790334
0.209242
0.139884
0.129099
0.128647
0.791036
0.128520
0.128658
0.128637
0.128647
0.209286
0.139821
0.128617
0.277420
0.128620
0.139931
0.128644
0.790313
0.790302
0.139842
0.128658
0.790339
0.139854
0.128677
0.776538
0.139868
0.790203
0.790299
0.139842
0.209242
0.277420
0.790299
0.139874
0.811080
0.128739
0.139938
0.790302
0.128725
0.128617
0.128620
0.790293
0.277509
0.128602
0.136327
0.790338
0.209463
0.136327
0.139884
0.641758
0.128520
0.129099
0.139874
0.139874
0.790421
0.128717
0.136099
0.128620
0.277420
0.135217
0.128658
0.139872
0.790305
0.209242
0.277420
0.139931
0.139872
0.130044
0.791036
0.790282
0.130044
0.128637
0.790299
0.128717
0.277420
0.139931
0.209433
0.128620
0.128669
0.128617
0.790299
0.189134
0.139874
0.128659
0.128725
0.128634
0.128739
0.209433
0.128670
0.128637
0.277443
0.128634
0.139874
0.128644
0.128622
0.209286
0.128644
0.128520
0.128620
0.790300
0.128746
0.504073
0.128637
0.790288
0.790214
0.139874
0.790350
0.128637
0.790295
0.790410
0.791036
0.807417
0.790302
0.128746
0.277420
0.790305
0.128634
0.139884
0.790375
0.128637
0.790396
0.790299
0.790375
0.139874
0.128746
0.128634
0.277365
0.128716
0.128716
0.128693
0.128669
0.790388
0.209055
0.790300
0.277420
0.139874
0.139821
0.128669
0.139858
0.139884
0.641758
0.790274
0.129099
0.790370
0.128620
0.790299
0.139858
0.135217
0.139874
0.139872
0.128602
0.790302
0.209272
0.128634
0.209055
0.128658
0.791036
0.209242
0.128637
0.139931
0.128658
0.128669
0.139831
0.790440
0.139854
0.139821
0.792033
0.139856
0.139854
0.139854
0.790323
0.139874
0.139854
0.790385
0.128693
0.139872
0.128746
0.139874
0.128725
0.139938
0.128669
0.139842
0.790375
0.128670
0.139842
0.128696
0.128696
0.128658
0.139858
0.277420
0.790357
0.277420
0.789799
0.128615
0.139831
0.139842
0.790334
0.789675
0.139931
0.209463
0.128746
0.790282
0.128670
0.209242
0.790305
0.789787
0.129099
0.128669
0.790388
0.189134
0.790300
0.790396
0.139884
0.277420
0.129099
0.128654
0.128520
0.128670
0.139869
0.128658
0.377770
0.790375
0.139874
0.129099
0.139884
0.277349
0.277320
0.128693
0.139842
0.277451
0.128732
0.128658
0.139896
0.136099
0.139854
0.139856
0.790203
0.790456
0.128637
0.139874
0.209286
0.139854
0.128634
0.139856
0.139938
0.790299
0.139938
0.790289
0.129099
0.790299
0.139821
0.130044
0.128696
0.128669
0.790456
0.128520
0.128637
0.128696
0.139854
0.128622
0.128746
0.790401
0.790330
0.139868
0.790456
0.790395
0.791036
0.790306
0.139854
0.790381
0.790375
0.790375
0.808463
0.790305
0.790388
0.139874
0.790302
0.128622
0.128637
0.790310
0.790401
0.139831
0.277420
0.790421
0.790071
0.128716
0.128637
0.139884
0.128622
0.128615
0.128670
0.139854
0.128670
0.128746
0.128644
0.504073
0.128669
0.139821
0.139902
0.790375
0.790316
0.139889
0.128644
0.128670
0.139821
0.277420
0.128717
0.128647
0.139938
0.139854
0.139856
0.139854
0.277346
0.139831
0.139874
0.128709
0.209433
0.128520
0.139884
0.139858
0.139821
0.139868
0.128746
0.128659
0.128696
0.139874
0.128670
0.128696
0.128746
0.793534
0.128677
0.790386
0.139884
0.128725
0.139874
0.128669
0.791036
0.271501
0.277320
0.128634
0.209463
0.139842
0.143040
0.139902
0.128696
0.128677
0.790299
0.790440
0.791036
0.128693
0.139874
0.128696
0.128634
0.197096
0.139872
0.139831
0.128659
0.128669
0.128670
0.139884
0.139854
0.128658
0.791036
0.136327
0.128620
0.790306
0.128637
0.128658
0.143040
0.128647
0.790456
0.504073
0.790375
0.128634
0.128622
0.277420
0.139896
0.790853
0.128637
0.128617
0.790302
0.790295
0.128696
0.128658
0.791036
0.790385
0.135217
0.128717
0.209282
0.128746
0.139842
0.791036
0.136327
0.790415
0.139854
0.790359
0.143109
0.128659
0.128670
0.139874
0.790401
0.189134
0.790280
0.128717
0.148004
0.143040
0.128669
0.209272
0.128746
0.139874
0.139872
0.790456
0.139856
0.277472
0.139874
0.128746
0.790310
0.693277
0.641758
0.139938
0.209433
0.790270
0.139874
0.790393
0.790410
0.139884
0.790310
0.790302
0.128677
0.128693
0.139858
0.790232
0.128716
0.128693
0.139842
0.790332
0.139821
0.128670
0.128658
0.139842
0.790370
0.139842
0.139842
0.128670
0.139821
0.139874
0.128693
0.128637
0.790334
0.128709
0.128647
0.139878
0.790393
0.790375
0.790424
0.139874
0.128746
0.128644
0.790334
0.128620
0.128739
0.139884
0.794874
0.128520
0.791036
0.139884
0.811080
0.139874
0.128670
0.790299
0.790299
0.128732
0.139858
0.790299
0.128520
0.790335
0.128709
0.128634
0.128520
0.128620
0.128617
0.139874
0.139842
0.128602
0.139858
0.128637
0.148004
0.139854
0.128669
0.128696
0.139878
0.790284
0.790299
0.139858
0.791036
0.135217
0.139854
0.128709
0.277420
0.795127
0.277420
0.128693
0.790299
0.128617
0.139896
0.791036
0.128670
0.128739
0.790308
0.791036
0.128658
0.139874
0.789873
0.789799
0.128717
0.128602
0.128620
0.139874
0.128670
0.128620
0.128602
0.279340
0.128620
0.128520
0.148004
0.128520
0.128696
0.135217
0.139874
0.277420
0.720211
0.790299
0.139874
0.277420
0.128670
0.128670
0.139854
0.128746
0.139884
0.139884
0.128677
0.128670
0.790300
0.139872
0.128634
0.139896
0.800128
0.139872
0.139884
0.139874
0.791036
0.693277
0.128746
0.790299
0.128617
0.139874
0.790302
0.129099
0.139884
0.790456
0.135217
0.128746
0.139854
0.790353
0.129099
0.128717
0.128520
0.794874
0.277420
0.139854
0.790308
0.139931
0.128669
0.277420
0.790203
0.128602
0.641758
0.790385
0.139884
0.139854
0.128659
0.139854
0.143040
0.277420
0.139842
0.128620
0.128520
0.139931
0.277420
0.791036
0.128732
0.128634
0.129099
0.209055
0.143109
0.790302
0.128654
0.139878
0.139821
0.139874
0.148004
0.791036
0.128659
0.128617
0.139938
0.139878
0.128602
0.790421
0.790305
0.139938
0.128670
0.277472
0.128634
0.139842
0.128634
0.128696
0.128696
0.791036
0.128602
0.128520
0.277420
0.277345
0.776538
0.128746
0.790316
0.790338
0.790344
0.139868
0.139868
0.139874
0.271501
0.790302
0.139931
0.128669
0.790346
0.139884
0.139874
0.790288
0.129099
0.128746
0.811040
0.128669
0.139858
0.277420
0.139874
0.139856
0.139902
0.139854
0.139872
0.139874
0.139856
0.790385
0.139938
0.811080
0.128658
0.790388
0.189134
0.128658
0.128617
0.135217
0.790322
0.128617
0.128520
0.135217
0.790288
0.790362
0.139842
0.128520
0.128617
0.139878
0.128637
0.790375
0.790334
0.128696
0.129099
0.790299
0.128647
0.790203
0.128677
0.789737
0.790302
0.139910
0.128739
0.128637
0.135217
0.139854
0.790310
0.128637
0.790135
0.128717
0.128716
0.789740
0.139874
0.136327
0.139902
0.128620
0.129099
0.139931
0.800128
0.790606
0.790300
0.129099
0.277420
0.128620
0.790236
0.136099
0.128746
0.790299
0.209463
0.139858
0.128620
0.209463
0.128620
0.811183
0.128658
0.139842
0.128615
0.790386
0.128634
0.139884
0.128746
0.790185
0.790363
0.139856
0.128659
0.128617
0.128620
0.790300
0.790121
0.128658
0.790368
0.128520
0.790302
0.790456
0.790280
0.790370
0.128669
0.128739
0.139842
0.128617
0.139889
0.128622
0.209463
0.790284
0.790606
0.209272
0.139842
0.128677
0.789716
0.790312
0.139874
0.277420
0.139854
0.277420
0.209433
0.139842
0.128746
0.197096
0.128670
0.128520
0.128602
0.139884
0.128620
0.277420
0.790295
0.139854
0.139874
0.790269
0.129099
0.128520
0.139931
0.128617
0.128637
0.139874
0.790330
0.139874
0.129099
0.128725
0.139878
0.128602
0.136327
0.139902
0.790691
0.128658
0.128746
0.139854
0.128644
0.128696
0.128717
0.139896
0.139842
0.790336
0.128602
0.790302
0.135217
0.128637
0.790160
0.790355
0.209433
0.129099
0.128637
0.128658
0.139874
0.129099
0.128644
0.143040
0.128717
0.139842
0.277429
0.128739
0.128622
0.128637
0.139842
0.277420
0.791036
0.136327
0.139874
0.128647
0.209242
0.790282
0.128634
0.790299
0.811075
0.789949
0.139874
0.129099
0.139874
0.790293
0.139931
0.277420
0.790276
0.128670
0.139874
0.790299
0.128696
0.128617
0.128725
0.209463
0.128677
0.791036
0.128670
0.128658
0.139902
0.139884
0.791036
0.139931
0.790334
0.128746
0.790305
0.139884
0.790203
0.790299
0.791036
0.790376
0.790385
0.139884
0.139854
0.139842
0.128670
0.811040
0.128696
0.139902
0.790293
0.139874
0.128693
0.128520
0.128620
0.139868
0.139872
0.129099
0.790466
0.128647
0.790367
0.128617
0.139854
0.135217
0.790268
0.129099
0.139884
0.128647
0.139821
0.128669
0.139910
0.128634
0.790421
0.129099
0.277420
0.128622
0.790299
0.791760
0.277362
0.139858
0.789873
0.128717
0.128634
0.129099
0.139889
0.128647
0.790383
0.128739
0.209055
0.128617
0.128677
0.139872
0.139874
0.209433
0.790456
0.128622
0.143040
0.139842
0.292821
0.128725
0.128602
0.128520
0.128637
0.139856
0.139910
0.128647
0.790299
0.129099
0.128637
0.789957
0.790336
0.789723
0.128670
0.128520
0.139842
0.128658
0.139854
0.128602
0.776538
0.128732
0.128670
0.790302
0.139884
0.139889
0.209282
0.128654
0.277420
0.128658
0.128659
0.128670
0.271501
0.790274
0.139821
0.128637
0.504073
0.128622
0.811082
0.128602
0.128670
0.790375
0.139869
0.128620
0.128520
0.128620
0.790456
0.128659
0.128670
0.277420
0.139938
0.129099
0.128696
0.128644
0.128717
0.139884
0.790282
0.139902
0.128637
0.128746
0.139884
0.790338
0.794862
0.209433
0.128620
0.790335
0.139884
0.128647
0.139938
0.139854
0.790392
0.209242
0.139854
0.790358
0.277420
0.128746
0.128669
0.790375
0.139842
0.139842
0.128696
0.128602
0.139874
0.277421
0.128670
0.189134
0.139874
0.139842
0.790618
0.790278
0.139902
0.135217
0.128634
0.128696
0.139854
0.790324
0.128716
0.128669
0.790682
0.811012
0.139854
0.783558
0.790283
0.128696
0.128658
0.128716
0.790299
0.790618
0.128716
0.139872
0.139938
0.128732
0.790071
0.128637
0.128669
0.143040
0.790392
0.790289
0.790682
0.129099
0.277420
0.139884
0.128637
0.128520
0.277374
0.803926
0.128637
0.776538
0.209282
0.128658
0.790276
0.128746
0.129099
0.277453
0.139858
0.128654
0.209282
0.139854
0.139889
0.277420
0.790288
0.277373
0.139874
0.277420
0.795127
0.139842
0.128617
0.139842
0.135217
0.277420
0.277420
0.790278
0.128677
0.128746
0.128746
0.139938
0.128622
0.277450
0.790283
0.139831
0.139842
0.128647
0.790393
0.130044
0.128659
0.790381
0.128520
0.139842
0.128658
0.130044
0.790302
0.128693
0.277483
0.128654
0.128670
0.139821
0.128746
0.277415
0.790259
0.791036
0.128732
0.139874
0.279340
0.790368
0.139842
0.277319
0.790282
0.128617
0.139854
0.139884
0.139858
0.128617
0.128647
0.139868
0.129099
0.139896
0.139874
0.128659
0.139884
0.792033
0.128617
0.139854
0.790270
0.128617
0.139884
0.790375
0.128693
0.135217
0.790392
0.139884
0.129099
0.791036
0.128602
0.790145
0.128615
0.143109
0.139896
0.790357
0.128669
0.139854
0.139884
0.128732
0.139902
0.139872
0.139874
0.128669
0.128654
0.128693
0.277420
0.128669
0.277420
0.128620
0.790409
0.791036
0.128620
0.128602
0.791036
0.128659
0.606583
0.128602
0.128644
0.128746
0.128669
0.139821
0.209286
0.139884
0.128622
0.128637
0.128659
0.139854
0.128732
0.128617
0.790235
0.128732
0.128717
0.209282
0.128669
0.128746
0.128669
0.790375
0.128637
0.143040
0.128670
0.128669
0.791036
0.790432
0.128520
0.277420
0.139868
0.128602
0.139884
0.139878
0.139858
0.139858
0.790410
0.143109
0.791036
0.128670
0.790394
0.139874
0.139854
0.790287
0.139896
0.128617
0.790370
0.139902
0.139868
0.128622
0.791036
0.128670
0.139872
0.800128
0.128670
0.139910
0.790466
0.790322
0.139858
0.790618
0.790299
0.277420
0.128520
0.790232
0.789846
0.128746
0.790283
0.128677
0.128670
0.128669
0.139884
0.139854
0.139896
0.128696
0.128732
0.791036
0.277420
0.790350
0.139938
0.128732
0.128658
0.139842
0.139868
0.148004
0.803115
0.790160
0.791036
0.128658
0.128602
0.128654
0.209272
0.128520
0.139874
0.139842
0.139854
0.790386
0.209242
0.790375
0.143040
0.277420
0.128709
0.139842
0.641758
0.790313
0.128617
0.790386
0.129099
0.791036
0.790395
0.128647
0.128739
0.128669
0.139872
0.277420
0.790401
0.128677
0.128658
0.209286
0.139938
0.791036
0.129099
0.135217
0.128520
0.139884
0.129099
0.139854
0.129099
0.277402
0.128670
0.128670
0.128622
0.790456
0.789987
0.148004
0.790375
0.139868
0.790301
0.128620
0.128658
0.791036
0.143109
0.143109
0.128617
0.790299
0.790299
0.277420
0.197096
0.128709
0.209272
0.129099
0.790280
0.128669
0.128696
0.139931
0.129099
0.128634
0.128602
0.139874
0.128634
0.128677
0.128746
0.143109
0.791036
0.277468
0.129099
0.139858
0.128677
0.790326
0.790385
0.209242
0.790299
0.129099
0.790302
0.128644
0.128520
0.139884
0.128617
0.693277
0.791036
0.128634
0.128520
0.139938
0.128709
0.128622
0.139831
0.790305
0.139884
0.139842
0.128677
0.789971
0.128620
0.139902
0.139884
0.790418
0.128670
0.128716
0.790373
0.129099
0.139854
0.139884
0.139831
0.128716
0.790311
0.139842
0.128693
0.790392
0.790373
0.791036
0.128622
0.128622
0.790332
0.790293
0.139874
0.139842
0.129099
0.790348
0.139874
0.139889
0.130044
0.793534
0.128669
0.139884
0.790394
0.790302
0.790440
0.139931
0.128670
0.790413
0.128658
0.128670
0.139856
0.128670
0.791036
0.136099
0.139858
0.139938
0.139854
0.148004
0.139856
0.811012
0.128520
0.128634
0.209463
0.139938
0.128669
0.128658
0.790344
0.128717
0.790410
0.128622
0.139842
0.128644
0.790375
0.128725
0.790289
0.139884
0.128670
0.139854
0.128677
0.128670
0.139821
0.790268
0.790338
0.790317
0.790155
0.128725
0.129099
0.790299
0.128732
0.139878
0.791036
0.790358
0.790334
0.135217
0.197096
0.128520
0.139884
0.271501
0.128716
0.790299
0.790334
0.790336
0.790350
0.139902
0.139831
0.139910
0.128746
0.139874
0.790355
0.128658
0.128696
0.128670
0.128520
0.128634
0.789796
0.790341
0.790362
0.790317
0.139874
0.128620
0.128670
0.209463
0.790334
0.128622
0.128693
0.128670
0.130044
0.128634
0.790329
0.128617
0.128520
0.139842
0.129099
0.128717
0.811028
0.790375
0.139874
0.143109
0.139938
0.135217
0.128669
0.139938
0.128637
0.790317
0.128634
0.139854
0.209433
0.139842
0.790418
0.128620
0.787695
0.128670
0.143040
0.128659
0.135217
0.790372
0.277320
0.277420
0.209463
0.128637
0.810983
0.128615
0.791036
0.135217
0.790424
0.139874
0.790375
0.139874
0.787695
0.128634
0.128602
0.128739
0.790236
0.128709
0.139874
0.277436
0.811012
0.139931
0.128620
0.128620
0.128659
0.129099
0.128658
0.139831
0.139884
0.790311
0.128617
0.129099
0.139854
0.789740
0.209282
0.128620
0.128725
0.136327
0.143040
0.128658
0.128696
0.790299
0.129099
0.790329
0.128669
0.139872
0.790373
0.790232
0.790420
0.128717
0.277420
0.789740
0.128615
0.139884
0.128670
0.790370
0.277420
0.128659
0.209242
0.139874
0.790373
0.139854
0.790362
0.128717
0.790302
0.209433
0.791036
0.128622
0.136099
0.148004
0.139938
0.129099
0.128669
0.197096
0.139874
0.139902
0.209463
0.128670
0.790305
0.139884
0.790156
0.128637
0.128644
0.791036
0.128670
0.139854
0.720211
0.129099
0.790401
0.128670
0.277420
0.128617
0.139854
0.790366
0.139858
0.807979
0.139910
0.129099
0.790388
0.143109
0.139874
0.128696
0.128620
0.189134
0.790424
0.277420
0.790270
0.129099
0.139874
0.790367
0.128659
0.795127
0.139938
0.128644
0.128620
0.128634
0.277420
0.810983
0.128693
0.128637
0.790302
0.209286
0.128669
0.139884
0.790299
0.790299
0.128637
0.128669
0.128696
0.139874
0.790275
0.790339
0.128669
0.128644
0.128637
0.790375
0.128622
0.139874
0.790313
0.790375
0.128669
0.128634
0.129099
0.790618
0.143109
0.790388
0.128669
0.128709
0.790346
0.787695
0.790334
0.139842
0.277420
0.790394
0.128746
0.811023
0.128659
0.128696
0.128732
0.128658
0.790270
0.790440
0.209433
0.128725
0.139874
0.791268
0.128696
0.287147
0.139858
0.148004
0.139842
0.139854
0.128725
0.139902
0.209242
0.128654
0.790682
0.790413
0.139858
0.128634
0.128658
0.128709
0.139869
0.135217
0.128716
0.128658
0.129099
0.128622
0.128654
0.128677
0.790373
0.790352
0.128637
0.139854
0.139854
0.790401
0.790299
0.790305
0.128520
0.136099
0.295703
0.139938
0.790305
0.790303
0.139821
0.790334
0.128677
0.790372
0.139874
0.139854
0.128617
0.790302
0.783558
0.139821
0.790299
0.794874
0.143040
0.139889
0.790269
0.128725
0.128696
0.790334
0.128725
0.790160
0.128654
0.811037
0.811028
0.128658
0.209242
0.790400
0.790338
0.129099
0.143109
0.811005
0.139842
0.209242
0.128654
0.128677
0.791036
0.128658
0.128677
0.790370
0.139874
0.139902
0.793534
0.128670
0.139868
0.791036
0.811082
0.128654
0.790214
0.128602
0.139868
0.791036
0.277420
0.791036
0.128617
0.128669
0.209272
0.128709
0.128647
0.128644
0.128659
0.139931
0.787695
0.128622
0.790306
0.128620
0.128637
0.790418
0.139854
0.139842
0.599007
0.811040
0.139854
0.791036
0.128716
0.139821
0.128725
0.790236
0.791036
0.128654
0.139842
0.277420
0.139854
0.790276
0.139821
0.128677
0.128647
0.128620
0.128658
0.139872
0.128670
0.811075
0.128746
0.790375
0.139854
0.139842
0.790276
0.790401
0.790388
0.790311
0.128677
0.136327
0.139884
0.135217
0.139884
0.128658
0.278035
0.128620
0.789816
0.128617
0.135217
0.789934
0.130044
0.139874
0.139931
0.128647
0.139884
0.295703
0.139884
0.128622
0.128725
0.139884
0.128617
0.790302
0.128617
0.128696
0.128637
0.139878
0.139874
0.135217
0.790375
0.790334
0.139842
0.139902
0.209463
0.789740
0.139938
0.790310
0.128659
0.128693
0.277432
0.139874
0.128647
0.139854
0.789834
0.128659
0.790302
0.128602
0.139874
0.680480
0.139874
0.790302
0.139884
0.790160
0.790307
0.128658
0.277420
0.128520
0.139902
0.139938
0.130044
0.139854
0.277453
0.128620
0.277420
0.139842
0.504073
0.790232
0.128746
0.790332
0.128696
0.139869
0.790299
0.128634
0.128620
0.790424
0.135217
0.209242
0.128602
0.128617
0.790353
0.139874
0.128716
0.139821
0.128669
0.139854
0.790393
0.791036
0.128637
0.128602
0.790370
0.139821
0.209286
0.197096
0.139856
0.790396
0.790217
0.197096
0.790288
0.271501
0.139884
0.128617
0.128620
0.790269
0.128637
0.128644
0.790334
0.128658
0.128622
0.789737
0.139884
0.128634
0.128659
0.128634
0.128637
0.135217
0.139874
0.209286
0.139858
0.143040
0.129099
0.139874
0.139884
0.128669
0.790428
0.139910
0.128658
0.209286
0.791036
0.139874
0.139874
0.128620
0.139858
0.790334
0.128696
0.139842
0.128620
0.789735
0.139874
0.135217
0.128637
0.139874
0.790216
0.128696
0.139842
0.139854
0.209463
0.139831
0.209055
0.128659
0.791036
0.139854
0.209433
0.790367
0.128602
0.277420
0.128669
0.139874
0.790339
0.128659
0.277420
0.139910
0.796835
0.128622
0.139884
0.790388
0.139854
0.139874
0.129099
0.790284
0.139874
0.139854
0.128670
0.128520
0.128670
0.128709
0.139884
0.128669
0.128746
0.139931
0.139842
0.128709
0.791036
0.790299
0.128659
0.128634
0.790375
0.789797
0.139884
0.128732
0.791036
0.641758
0.128693
0.790302
0.128622
0.128622
0.139884
0.139854
0.129099
0.128670
0.277420
0.641758
0.139842
0.148004
0.139842
0.128602
0.129099
0.789816
0.790366
0.128602
0.139842
0.128637
0.790456
0.128622
0.128637
0.139910
0.790269
0.790295
0.139884
0.128615
0.139902
0.790370
0.277420
0.790305
0.790326
0.795127
0.128693
0.128637
0.277316
0.128622
0.128634
0.811082
0.128617
0.128670
0.128644
0.128637
0.148004
0.128644
0.277420
0.790334
0.790322
0.790378
0.139831
0.128677
0.128659
0.128602
0.790385
0.129099
0.128617
0.790302
0.789934
0.139884
0.139831
0.128709
0.128717
0.277420
0.139902
0.277471
0.139869
0.139931
0.139938
0.789796
0.789836
0.790385
0.277436
0.277420
0.789840
0.128644
0.129099
0.128696
0.128717
0.790340
0.139874
0.790401
0.139842
0.139874
0.790385
0.128637
0.776538
0.136099
0.790440
0.139854
0.128746
0.790418
0.128709
0.277472
0.128520
0.790276
0.139874
0.128658
0.128637
0.139854
0.128732
0.128602
0.128746
0.790305
0.790388
0.136327
0.790299
0.128602
0.790301
0.277486
0.128617
0.128637
0.148004
0.128670
0.504073
0.790370
0.139874
0.139902
0.790373
0.209282
0.795127
0.790373
0.790421
0.790467
0.790283
0.128637
0.209272
0.139884
0.789833
0.128644
0.128658
0.139854
0.128696
0.139842
0.277313
0.277420
0.139869
0.641758
0.790323
0.790424
0.143040
0.790299
0.128732
0.139931
0.128670
0.129099
0.128725
0.129099
0.197096
0.128669
0.795127
0.790334
0.128520
0.129099
0.790364
0.128620
0.128659
0.128693
0.128746
0.128709
0.790456
0.790238
0.790682
0.790270
0.128620
0.135217
0.135217
0.128659
0.277471
0.791036
0.139842
0.790212
0.128659
0.128693
0.277420
0.128709
0.128617
0.128670
0.790319
0.790299
0.139858
0.128658
0.277420
0.790350
0.128659
0.790418
0.209433
0.810983
0.790274
0.128617
0.790310
0.148004
0.128602
0.129099
0.139854
0.128709
0.139884
0.790385
0.128669
0.807979
0.811028
0.277420
0.128620
0.790322
0.128647
0.139874
0.790299
0.790289
0.128654
0.130044
0.277368
0.209242
0.504073
0.139854
0.128659
0.129099
0.139868
0.277420
0.128677
0.128670
0.128677
0.789890
0.277420
0.139910
0.128677
0.128602
0.790302
0.787695
0.277420
0.277420
0.139874
0.790355
0.139831
0.128620
0.790363
0.790312
0.139874
0.791036
0.641758
0.139938
0.139874
0.139872
0.139884
0.128617
0.277453
0.790288
0.139858
0.790373
0.790375
0.789863
0.128693
0.790268
0.128620
0.209282
0.790299
0.287147
0.277420
0.128658
0.790381
0.277373
0.139884
0.128654
0.209463
0.128716
0.128520
0.128602
0.128658
0.129099
0.271501
0.139856
0.128670
0.790044
0.128617
0.791036
0.790300
0.791036
0.128669
0.776538
0.790299
0.139869
0.139854
0.790370
0.277420
0.128622
0.790347
0.139874
0.139842
0.139910
0.139854
0.810970
0.209055
0.139896
0.790282
0.128644
0.139858
0.128620
0.791036
0.790283
0.209242
0.148004
0.128716
0.128739
0.139856
0.129099
0.135217
0.790342
0.790275
0.789846
0.143109
0.139902
0.139842
0.139884
0.139874
0.790204
0.128617
0.128644
0.129099
0.139831
0.139854
0.128670
0.139842
0.139874
0.128637
0.128716
0.814290
0.790375
0.811037
0.128602
0.128622
0.128617
0.277420
0.790346
0.128620
0.128669
0.139931
0.139856
0.790375
0.139878
0.139854
0.128669
0.139831
0.790021
0.139910
0.128602
0.139874
0.790386
0.139842
0.128617
0.790269
0.139889
0.128637
0.790384
0.277512
0.136099
0.139842
0.129099
0.128634
0.791036
0.139842
0.209055
0.790332
0.790305
0.128709
0.811183
0.790362
0.197096
0.776538
0.139902
0.790036
0.139842
0.791760
0.789735
0.128622
0.136327
0.139874
0.128602
0.377770
0.128746
0.805401
0.128634
0.790268
0.790362
0.791036
0.277321
0.790299
0.128716
0.139874
0.277420
0.139874
0.790305
0.277510
0.791036
0.128617
0.790375
0.790334
0.790299
0.277420
0.128669
0.791036
0.139884
0.791036
0.209433
0.790236
0.139884
0.139854
0.277420
0.139854
0.128622
0.139938
0.136099
0.790428
0.139854
0.135217
0.128602
0.128622
0.139896
0.128677
0.277388
0.277420
0.135217
0.139874
0.790388
0.128696
0.789799
0.790287
0.136099
0.139854
0.139831
0.128658
0.504073
0.139842
0.128637
0.139842
0.279340
0.128617
0.139872
0.139884
0.128669
0.128717
0.790268
0.139910
0.277388
0.128669
0.128634
0.129099
0.143109
0.790420
0.139842
0.139868
0.128634
0.129099
0.136327
0.789846
0.128620
0.128620
0.790289
0.790372
0.790394
0.811113
0.129099
0.790364
0.790440
0.128602
0.139902
0.128520
0.139874
0.139868
0.791036
0.139842
0.791036
0.128677
0.128659
0.790302
0.128622
0.641758
0.791036
0.128520
0.139842
0.209242
0.790280
0.790409
0.209463
0.148004
0.128615
0.128717
0.128658
0.793268
0.128634
0.128520
0.790682
0.128520
0.277420
0.128602
0.128620
0.789865
0.790299
0.139842
0.794862
0.136099
0.790339
0.790355
0.128637
0.209433
0.128647
0.128725
0.139874
0.128637
0.128520
0.128637
0.197096
0.790276
0.128693
0.128696
0.139842
0.139874
0.139938
0.139872
0.128725
0.139931
0.277420
0.139831
0.794874
0.139854
0.128602
0.139884
0.790299
0.790302
0.128716
0.128520
0.139854
0.128644
0.128746
0.128647
0.128617
0.128677
0.128620
0.189134
0.139884
0.793534
0.790275
0.790300
0.128746
0.791036
0.790288
0.789863
0.790357
0.128658
0.129099
0.128520
0.128620
0.128659
0.128669
0.790299
0.139889
0.143109
0.790299
0.789799
0.804171
0.128647
0.128520
0.790373
0.143040
0.791036
0.129099
0.139910
0.128602
0.139842
0.128620
0.139842
0.139842
0.811183
0.789799
0.790394
0.128658
0.209242
0.128725
0.128693
0.790302
0.790302
0.139931
0.791036
0.128617
0.790238
0.128620
0.277420
0.139869
0.139831
0.139858
0.641758
0.790299
0.209055
0.128746
0.791036
0.139878
0.128620
0.143040
0.807979
0.128693
0.128658
0.790332
0.277316
0.790268
0.139874
0.128658
0.790364
0.129099
0.128658
0.128520
0.790413
0.680480
0.128670
0.129099
0.135217
0.135217
0.787695
0.139884
0.139842
0.128634
0.790365
0.128693
0.209463
0.128696
0.790265
0.209272
0.128659
0.790132
0.128670
0.139884
0.129099
0.128602
0.189134
0.128658
0.790330
0.128746
0.128602
0.139874
0.139872
0.277497
0.139938
0.128670
0.128659
0.128669
0.790388
0.790299
0.277420
0.128617
0.128520
0.504073
0.787695
0.139821
0.811040
0.128647
0.139884
0.128658
0.128693
0.790352
0.139854
0.209463
0.128637
0.128658
0.790367
0.791036
0.128693
0.128620
0.800128
0.128669
0.136327
0.128644
0.139874
0.139938
0.139831
0.789996
0.139858
0.128637
0.128634
0.209463
0.139842
0.139931
0.128677
0.128670
0.790269
0.128746
0.139938
0.790370
0.790107
0.277472
0.128615
0.139872
0.504073
0.128696
0.128620
0.793534
0.209272
0.128658
0.139821
0.128659
0.128717
0.790310
0.128746
0.209433
0.790302
0.790135
0.128670
0.189134
0.129099
0.277420
0.139821
0.139854
0.128622
0.791036
0.139884
0.791036
0.139872
0.790420
0.128709
0.790302
0.128696
0.128670
0.790394
0.790276
0.791036
0.790392
0.139884
0.139874
0.139872
0.790306
0.139874
0.279340
0.128617
0.128677
0.209433
0.139884
0.128620
0.807979
0.128617
0.128670
0.790456
0.139854
0.128617
0.139878
0.139842
0.790420
0.128647
0.128658
0.128669
0.790370
0.129099
0.790342
0.139884
0.139856
0.790293
0.128620
0.128725
0.790385
0.791036
0.128670
0.128670
0.128677
0.790302
0.790373
0.139874
0.139821
0.790467
0.139884
0.128617
0.128647
0.139902
0.139831
0.209272
0.139884
0.128658
0.790399
0.128746
0.139884
0.139874
0.128617
0.128659
0.128746
0.128696
0.139874
0.295703
0.791036
0.277420
0.139889
0.128746
0.128602
0.790302
0.790367
0.128602
0.790394
0.209055
0.209055
0.209055
0.790326
0.135217
0.209242
0.790335
0.271501
0.128658
0.135217
0.139831
0.139874
0.128670
0.128725
0.139831
0.277420
0.128669
0.791036
0.277478
0.139856
0.139842
0.189134
0.789846
0.128644
0.143109
0.800128
0.128659
0.790326
0.128620
0.790299
0.139910
0.128658
0.139889
0.139874
0.800128
0.790304
0.139884
0.790287
0.128670
0.189134
0.128520
0.139938
0.790365
0.209463
0.139938
0.189134
0.128670
0.139910
0.128647
0.790385
0.791036
0.139854
0.128670
0.128637
0.790319
0.139831
0.790288
0.504073
0.790388
0.789832
0.136327
0.139874
0.135217
0.128634
0.128658
0.129099
0.128669
0.129099
0.139869
0.139874
0.790300
0.277420
0.128746
0.790421
0.128693
0.128746
0.789009
0.128670
0.790294
0.128602
0.139884
0.128669
0.139874
0.128696
0.139884
0.789773
0.128746
0.128669
0.128669
0.139854
0.128696
0.793534
0.139884
0.790178
0.139910
0.790299
0.790302
0.811028
0.136099
0.811034
0.128647
0.128617
0.790302
0.139878
0.790303
0.277420
0.790299
0.128617
0.128669
0.139884
0.128658
0.277420
0.139874
0.139854
0.790415
0.197096
0.139878
0.129099
0.790346
0.139869
0.606583
0.139878
0.139854
0.139874
0.139884
0.277475
0.790278
0.128658
0.128725
0.143109
0.139872
0.139931
0.128620
0.790299
0.139858
0.139938
0.139831
0.139874
0.136327
0.197096
0.209433
0.128739
0.811034
0.790456
0.790299
0.128658
0.135217
0.128620
0.139868
0.790021
0.135217
0.128670
0.791036
0.128670
0.128669
0.128602
0.139854
0.128622
0.128637
0.277420
0.791036
0.128670
0.128620
0.128709
0.139854
0.139874
0.139910
0.128670
0.148004
0.139884
0.790410
0.128716
0.128746
0.139884
0.277471
0.128620
0.790415
0.128693
0.139874
0.128622
0.790413
0.790386
0.139938
0.790301
0.128637
0.139854
0.136327
0.128602
0.128647
0.139874
0.128746
0.148004
0.139854
0.139884
0.139938
0.128659
0.139884
0.209463
0.189134
0.130044
0.128647
0.139902
0.139878
0.504073
0.139938
0.810983
0.129099
0.139874
0.790376
0.128717
0.139854
0.790338
0.790295
0.277478
0.790283
0.791036
0.504073
0.790212
0.287147
0.128659
0.139858
0.209282
0.139842
0.791036
0.139854
0.128637
0.811028
0.139874
0.128622
0.277420
0.794874
0.277420
0.128669
0.128620
0.790295
0.139842
0.128622
0.139842
0.128693
0.790274
0.128620
0.128659
0.135217
0.128617
0.749624
0.128746
0.277468
0.295703
0.209242
0.789816
0.148004
0.128647
0.128520
0.128520
0.139854
0.128654
0.128622
0.128717
0.128716
0.128725
0.128709
0.139854
0.135217
0.128620
0.790338
0.139854
0.128644
0.139874
0.504073
0.789737
0.139874
0.139854
0.790373
0.139842
0.790388
0.277420
0.128634
0.209433
0.128670
0.790373
0.790375
0.139842
0.790036
0.790387
0.143109
0.139884
0.128670
0.790322
0.139889
0.139878
0.128658
0.143109
0.790275
0.139938
0.189134
0.791052
0.128696
0.128669
0.128669
0.790300
0.139821
0.128693
0.128716
0.139884
0.139884
0.128669
0.139938
0.128739
0.800128
0.139884
0.128654
0.811679
0.128669
0.790299
0.128634
0.139884
0.128717
0.128670
0.128658
0.135217
0.790299
0.790300
0.128617
0.128622
0.790355
0.128677
0.128659
0.139874
0.128669
0.209055
0.128677
0.277420
0.790299
0.790028
0.128617
0.790335
0.128659
0.135217
0.139874
0.129099
0.139902
0.129099
0.790373
0.209463
0.277420
0.139854
0.128615
0.139854
0.129099
0.128717
0.504073
0.787695
0.789863
0.128669
0.790440
0.277420
0.139889
0.209272
0.790299
0.128520
0.139842
0.789735
0.128696
0.139884
0.128670
0.128634
0.139872
0.139854
0.790299
0.128709
0.139938
0.139821
0.791036
0.791036
0.129099
0.790178
0.139868
0.800005
0.791036
0.791036
0.790352
0.790682
0.139884
0.128617
0.143109
0.129099
0.790421
0.139869
0.139884
0.128670
0.139884
0.139856
0.790344
0.139831
0.128615
0.789957
0.209463
0.139854
0.128622
0.128669
0.128620
0.790386
0.128620
0.128716
0.790107
0.128658
0.139874
0.789971
0.136327
0.790332
0.128658
0.277420
0.790299
0.790289
0.139842
0.139842
0.128696
0.277420
0.128617
0.128620
0.139842
0.790329
0.139869
0.811113
0.790375
0.128670
0.790299
0.128746
0.139874
0.128716
0.790299
0.128658
0.790299
0.790310
0.128620
0.789921
0.790278
0.128622
0.769189
0.790203
0.790440
0.139874
0.128709
0.790375
0.790299
0.128617
0.128622
0.128620
0.128637
0.139821
0.139854
0.139874
0.128520
0.139874
0.139842
0.128669
0.790365
0.128709
0.791036
0.128669
0.128696
0.128696
0.789773
0.790215
0.790203
0.130044
0.135217
0.209242
0.790347
0.128669
0.790394
0.128658
0.790359
0.790212
0.189134
0.139884
0.790317
0.277420
0.143109
0.128620
0.139874
0.128634
0.790379
0.139910
0.128620
0.139938
0.128647
0.790352
0.209242
0.811037
0.139842
0.790359
0.128622
0.139854
0.129099
0.791036
0.791052
0.139854
0.128644
0.128659
0.790370
0.128670
0.128696
0.790299
0.790299
0.139878
0.128669
0.136099
0.139884
0.143109
0.128746
0.139884
0.791036
0.128615
0.128658
0.788625
0.271501
0.139902
0.139931
0.197096
0.791036
0.143109
0.128716
0.814290
0.129099
0.128693
0.277308
0.128658
0.139931
0.791036
0.789907
0.139884
0.139869
0.139938
0.128617
0.790367
0.790448
0.790347
0.277420
0.139874
0.139842
0.128669
0.128520
0.128520
0.128620
0.128725
0.128622
0.790300
0.128677
0.139842
0.128658
0.139854
0.139874
0.790121
0.277420
0.135217
0.139854
0.139842
0.128620
0.790392
0.139842
0.139938
0.139884
0.139842
0.128637
0.129099
0.128716
0.128725
0.271501
0.139938
0.209272
0.790365
0.790302
0.139842
0.148004
0.139931
0.790269
0.128693
0.128696
0.139831
0.790421
0.128647
0.139842
0.790375
0.128617
0.128647
0.790313
0.791036
0.128669
0.790323
0.128658
0.128615
0.136099
0.139874
0.128620
0.129099
0.128746
0.128617
0.277432
0.128669
0.128520
0.128622
0.128622
0.139858
0.139854
0.139878
0.128717
0.128602
0.128617
0.791036
0.139842
0.790303
0.148004
0.139874
0.128622
0.139874
0.128617
0.790300
0.209286
0.128659
0.136327
0.128659
0.128520
0.135217
0.139896
0.135217
0.139842
0.139872
0.128670
0.209286
0.129099
0.790295
0.277420
0.277365
0.790284
0.128620
0.130044
0.139938
0.139938
0.790310
0.148004
0.139842
0.209242
0.139831
0.811049
0.790299
0.789987
0.790293
0.128647
0.271501
0.209272
0.790456
0.139884
0.128746
0.139872
0.790373
0.139910
0.139854
0.139884
0.139896
0.128622
0.790299
0.128520
0.129099
0.128725
0.128669
0.128669
0.209286
0.139874
0.128644
0.128732
0.129099
0.135217
0.139854
0.790299
0.128602
0.128670
0.128696
0.795127
0.790370
0.139854
0.128659
0.790388
0.139884
0.794874
0.139874
0.128677
0.128717
0.136327
0.139889
0.128725
0.129099
0.128677
0.128620
0.139874
0.139874
0.128617
0.139884
0.790335
0.209433
0.128670
0.128696
0.790366
0.128644
0.139858
0.148004
0.791036
0.128659
0.139821
0.128670
0.277451
0.129099
0.139889
0.790021
0.128693
0.139842
0.139854
0.139854
0.128647
0.128620
0.277436
0.128677
0.128622
0.128620
0.139884
0.776538
0.139856
0.128622
0.790365
0.189134
0.789907
0.128617
0.139884
0.129099
0.139842
0.143040
0.209055
0.139858
0.790274
0.790316
0.139872
0.128746
0.139842
0.139854
0.790409
0.128746
0.128677
0.128615
0.128670
0.143040
0.128617
0.209272
0.790375
0.790280
0.209055
0.790302
0.790302
0.128620
0.277402
0.128717
0.128602
0.209242
0.790302
0.139858
0.139931
0.790283
0.277420
0.139854
0.128520
0.139878
0.139842
0.139889
0.128637
0.139854
0.128644
0.277420
0.128696
0.790326
0.128654
0.790238
0.790373
0.790302
0.790299
0.128677
0.128732
0.139902
0.128620
0.128634
0.128669
0.128696
0.143109
0.128659
0.128696
0.790385
0.128520
0.128746
0.136099
0.277420
0.128669
0.139874
0.277349
0.128617
0.139831
0.135217
0.139842
0.277308
0.128637
0.139854
0.791036
0.143040
0.277420
0.128634
0.139842
0.790393
0.128732
0.128693
0.143109
0.139854
0.139858
0.148004
0.790300
0.128634
0.139842
0.790284
0.790363
0.128709
0.128620
0.128634
0.790375
0.790178
0.128520
0.139858
0.128658
0.209282
0.136099
0.277420
0.209242
0.139842
0.128622
0.139874
0.139910
0.277425
0.139854
0.139856
0.790373
0.139854
0.791036
0.139931
0.139874
0.791036
0.128617
0.790373
0.277420
0.128520
0.139910
0.277420
0.790363
0.271501
0.790300
0.139889
0.139874
0.128620
0.139842
0.139854
0.128659
0.277415
0.136327
0.139831
0.790302
0.139884
0.504073
0.128725
0.790299
0.791036
0.277420
0.129099
0.139884
0.139842
0.139874
0.209282
0.808632
0.128658
0.277420
0.128746
0.790212
0.128696
0.790135
0.139869
0.139874
0.790440
0.277486
0.128602
0.128615
0.128696
0.128670
0.277420
0.139874
0.139856
0.128659
0.128634
0.790341
0.139869
0.790348
0.791036
0.790375
0.139889
0.277471
0.128717
0.790302
0.789737
0.128696
0.139874
0.209286
0.790306
0.139938
0.139896
0.139910
0.139842
0.128602
0.209433
0.128637
0.209055
0.277388
0.139831
0.791036
0.128622
0.209463
0.135217
0.128669
0.790322
0.197096
0.139874
0.790135
0.128617
0.139842
0.277420
0.128617
0.789796
0.790424
0.791036
0.139868
0.790299
0.128717
0.129099
0.790618
0.139874
0.139884
0.139874
0.139842
0.292821
0.128634
0.139874
0.790339
0.139842
0.128696
0.277420
0.139854
0.128520
0.790294
0.128717
0.128670
0.128670
0.790334
0.504073
0.197096
0.129099
0.139854
0.790375
0.139854
0.795127
0.129099
0.139931
0.143109
0.128520
0.811023
0.128520
0.790288
0.128617
0.790302
0.128620
0.139874
0.791760
0.139831
0.128746
0.139884
0.128725
0.128520
0.790334
0.139931
0.128637
0.790399
0.128693
0.791036
0.139938
0.139842
0.139821
0.790336
0.128716
0.791036
0.790299
0.790302
0.139821
0.790319
0.128637
0.128659
0.128637
0.790413
0.128602
0.139854
0.128739
0.128746
0.790365
0.790373
0.128659
0.790467
0.128658
0.790299
0.128617
0.128696
0.808463
0.790203
0.792033
0.790278
0.790036
0.128637
0.143040
0.790301
0.791036
0.790375
0.128520
0.128670
0.139842
0.277420
0.790339
0.139884
0.790299
0.790375
0.139831
0.139910
0.139842
0.129099
0.143040
0.128617
0.790302
0.128602
0.791036
0.791036
0.128620
0.128677
0.790340
0.128696
0.128620
0.128716
0.139842
0.790335
0.139854
0.794874
0.139842
0.139854
0.791036
0.277420
0.776538
0.807979
0.790274
0.791036
0.209055
0.504073
0.790367
0.790300
0.128717
0.139872
0.277386
0.128602
0.795127
0.790293
0.139884
0.139874
0.791116
0.128520
0.139856
0.139854
0.790299
0.139938
0.129099
0.790306
0.129099
0.128658
0.139831
0.139842
0.277420
0.128696
0.128520
0.128658
0.128634
0.139874
0.277420
0.811080
0.277420
0.139938
0.790352
0.139889
0.277453
0.128637
0.128670
0.128659
0.641758
0.662282
0.277420
0.128620
0.128659
0.128659
0.139884
0.790310
0.277425
0.128677
0.790432
0.139884
0.128620
0.128520
0.790416
0.139869
0.139884
0.128659
0.790300
0.790440
0.128620
0.139868
0.139874
0.135217
0.790394
0.139858
0.790274
0.805925
0.790682
0.791200
0.128602
0.790302
0.128669
0.128520
0.197096
0.790215
0.139884
0.776538
0.128696
0.128659
0.128617
0.128634
0.277386
0.139858
0.790370
0.139854
0.790299
0.128669
0.790299
0.790682
0.139854
0.128520
0.139856
0.790299
0.790278
0.814290
0.277420
0.790334
0.148004
0.790342
0.790269
0.209272
0.139878
0.790032
0.128634
0.790456
0.277420
0.139854
0.139884
0.139884
0.139842
0.139869
0.811037
0.790440
0.791036
0.139874
0.209272
0.790440
0.139858
0.128520
0.139884
0.277420
0.135217
0.128717
0.128670
0.128647
0.790317
0.790410
0.209286
0.128677
0.139858
0.128622
0.790302
0.139896
0.139842
0.139842
0.790301
0.277420
0.128634
0.139869
0.128615
0.277420
0.139842
0.128669
0.130044
0.128696
0.790340
0.128620
0.139869
0.135217
0.790377
0.139854
0.128622
0.128644
0.128696
0.139842
0.139868
0.128520
0.128602
0.139938
0.139884
0.128620
0.143040
0.129099
0.791036
0.277411
0.790288
0.128620
0.790302
0.209055
0.128617
0.139856
0.790299
0.128637
0.128602
0.277420
0.790302
0.148004
0.790332
0.790313
0.139842
0.143040
0.128725
0.277501
0.128696
0.128637
0.128615
0.790388
0.790330
0.790288
0.139874
0.128670
0.790373
0.143040
0.128677
0.139854
0.795127
0.128620
0.504073
0.789763
0.136327
0.277420
0.128520
0.128669
0.128677
0.128659
0.139831
0.128622
0.128634
0.136099
0.129099
0.128658
0.128669
0.129099
0.791036
0.790352
0.139858
0.790302
0.789929
0.128677
0.148004
0.139842
0.139878
0.790293
0.139872
0.139854
0.139878
0.128637
0.128658
0.128637
0.139858
0.139910
0.128647
0.128620
0.277420
0.128617
0.139869
0.139869
0.139854
0.139878
0.790456
0.790299
0.277420
0.790305
0.791036
0.128620
0.128622
0.128622
0.128746
0.139854
0.794874
0.128658
0.128617
0.128670
0.128746
0.790288
0.128709
0.128677
0.787695
0.790044
0.139854
0.128659
0.128620
0.139821
0.136327
0.139854
0.277420
0.790145
0.139931
0.139854
0.128644
0.128696
0.139874
0.790385
0.128677
0.790308
0.129099
0.128696
0.790421
0.790334
0.128709
0.139842
0.139869
0.277471
0.810970
0.128617
0.128620
0.128696
0.128637
0.790415
0.791036
0.277386
0.128520
0.139874
0.790372
0.790288
0.790420
0.139874
0.128647
0.790385
0.139884
0.790424
0.794862
0.790299
0.128717
0.129099
0.139856
0.790301
0.139869
0.128520
0.128739
0.807417
0.128617
0.139854
0.209463
0.277420
0.139858
0.128746
0.139878
0.139854
0.139884
0.139874
0.790618
0.789964
0.128746
0.139878
0.128725
0.128637
0.128622
0.277509
0.128634
0.277411
0.790421
0.128620
0.128658
0.811679
0.790299
0.790348
0.128670
0.128669
0.128746
0.139938
0.790310
0.790387
0.139910
0.128617
0.139821
0.139856
0.139874
0.129099
0.128520
0.139821
0.139854
0.790036
0.129099
0.791036
0.790353
0.271501
0.139938
0.128617
0.790341
0.128637
0.790355
0.139842
0.790440
0.790322
0.619335
0.791036
0.128617
0.189134
0.790289
0.139884
0.277420
0.139854
0.128732
0.128677
0.790329
0.128696
0.143040
0.790214
0.128709
0.790268
0.277420
0.139858
0.129099
0.128602
0.128617
0.128602
0.783558
0.209242
0.790353
0.139874
0.128659
0.139856
0.790299
0.128669
0.128658
0.790299
0.128622
0.139842
0.128658
0.128634
0.135217
0.139842
0.790388
0.277420
0.804064
0.128520
0.128637
0.129099
0.128602
0.128637
0.139872
0.139931
0.139854
0.128622
0.136327
0.129099
0.139854
0.128709
0.790375
0.139884
0.790293
0.139842
0.128669
0.128669
0.277420
0.139821
0.790299
0.128634
0.790375
0.139821
0.128746
0.277420
0.790299
0.791036
0.128670
0.790156
0.128634
0.277420
0.128637
0.791052
0.139854
0.128658
0.790302
0.128669
0.128659
0.790390
0.128746
0.128677
0.790288
0.139884
0.128520
0.129099
0.128602
0.139856
0.790440
0.811034
0.139868
0.128659
0.128637
0.139858
0.790344
0.139910
0.128659
0.790300
0.790336
0.139884
0.139884
0.790308
0.209433
0.789846
0.189134
0.189134
0.139868
0.790357
0.128602
0.790306
0.776538
0.139842
0.139884
0.662282
0.128622
0.197096
0.790347
0.791200
0.128669
0.128520
0.128637
0.128615
0.790388
0.143109
0.128669
0.139874
0.277362
0.277436
0.139854
0.790268
0.789735
0.139868
0.128620
0.790396
0.129099
0.128637
0.130044
0.790353
0.139884
0.790319
0.790178
0.128669
0.128677
0.790302
0.606583
0.139878
0.209242
0.277420
0.128670
0.128746
0.128647
0.128602
0.128670
0.277420
0.128647
0.803115
0.139884
0.791036
0.139868
0.128746
0.139938
0.790232
0.128637
0.139884
0.790375
0.139874
0.139842
0.128615
0.139884
0.139868
0.128637
0.209272
0.128620
0.277420
0.139821
0.128659
0.790365
0.128696
0.128617
0.139884
0.790424
0.139854
0.128620
0.504073
0.791036
0.128658
0.139872
0.139878
0.790323
0.790299
0.209055
0.790306
0.790415
0.139842
0.128620
0.277486
0.271501
0.129099
0.790270
0.790299
0.277497
0.271501
0.139856
0.128677
0.139874
0.139889
0.791036
0.790375
0.790329
0.811082
0.139842
0.128658
0.128620
0.139884
0.139858
0.139856
0.277420
0.790299
0.129099
0.209242
0.136327
0.128693
0.790283
0.790335
0.128746
0.277425
0.128670
0.277388
0.790282
0.787695
0.128634
0.790299
0.128658
0.790332
0.189134
0.128746
0.128622
0.128620
0.277420
0.189134
0.128696
0.130044
0.790302
0.128634
0.128670
0.790235
0.129099
0.139874
0.790385
0.130044
0.128602
0.128746
0.128669
0.790339
0.128746
0.128654
0.791036
0.790295
0.128620
0.139884
0.128647
0.139874
0.139842
0.790301
0.139854
0.790372
0.148004
0.139884
0.209433
0.277468
0.277420
0.787695
0.790302
0.128647
0.128669
0.790268
0.139878
0.139884
0.143109
0.129099
0.139910
0.128644
0.139842
0.139874
0.790365
0.139868
0.129099
0.128670
0.790310
0.790410
0.128658
0.788625
0.139854
0.129099
0.277420
0.282331
0.139874
0.139874
0.209272
0.791036
0.128669
0.209282
0.789716
0.128637
0.128622
0.128746
0.148004
0.136099
0.128620
0.128717
0.787695
0.740330
0.277420
0.128602
0.277420
0.209433
0.136099
0.139874
0.197096
0.790310
0.295703
0.139878
0.790299
0.790388
0.139868
0.139884
0.808463
0.139842
0.139874
0.209463
0.139854
0.128637
0.139868
0.790388
0.128620
0.139854
0.128644
0.139869
0.128658
0.139874
0.128602
0.128658
0.209272
0.128746
0.129099
0.139856
0.139884
0.790348
0.790301
0.787695
0.641758
0.139831
0.790618
0.791036
0.790302
0.128696
0.128669
0.128647
0.128647
0.128647
0.209282
0.139831
0.139910
0.789723
0.139874
0.790385
0.790299
0.128696
0.139884
0.790388
0.128658
0.139874
0.129099
0.128669
0.790299
0.791036
0.139872
0.135217
0.129099
0.504073
0.128739
0.139858
0.128669
0.128669
0.790456
0.790206
0.139821
0.277420
0.790329
0.790317
0.139821
0.139874
0.128658
0.209463
0.787695
0.790401
0.139854
0.776538
0.811075
0.128746
0.277420
0.128654
0.790332
0.790336
0.139884
0.135217
0.128746
0.790270
0.128617
0.790275
0.791036
0.129099
0.128647
0.128696
0.790392
0.128617
0.139902
0.805401
0.128696
0.790270
0.209272
0.790319
0.790334
0.791036
0.128717
0.128677
0.209242
0.128669
0.128634
0.189134
0.128746
0.128746
0.129099
0.790268
0.139872
0.129099
0.139874
0.277420
0.790319
0.790424
0.209286
0.790283
0.139831
0.129099
0.128644
0.139854
0.128746
0.128693
0.128520
0.139854
0.209242
0.209272
0.139938
0.790302
0.128647
0.128669
0.139842
0.128693
0.128654
0.139854
0.128716
0.139854
0.128670
0.791036
0.787695
0.790275
0.128647
0.139884
0.128746
0.790359
0.277420
0.128693
0.139872
0.128725
0.139884
0.139910
0.139854
0.209433
0.139884
0.148004
0.139872
0.790365
0.129099
0.139856
0.790253
0.790344
0.139854
0.128696
0.128746
0.139889
0.128696
0.128520
0.139821
0.128520
0.128620
0.807417
0.128620
0.790456
0.139854
0.128677
0.790383
0.277335
0.790418
0.139874
0.129099
0.790302
0.794862
0.790288
0.790203
0.139902
0.209242
0.139884
0.128647
0.139842
0.790160
0.139902
0.790299
0.128659
0.139842
0.790421
0.139831
0.790401
0.129099
0.139842
0.148004
0.139874
0.128669
0.128716
0.136327
0.128717
0.128620
0.277420
0.139854
0.139821
0.790377
0.811040
0.790217
0.128670
0.139874
0.277420
0.139884
0.209433
0.790401
0.128520
0.128669
0.128620
0.128739
0.128693
0.811012
0.139896
0.128725
0.776538
0.277465
0.139854
0.787695
0.277420
0.791036
0.128644
0.277420
0.790379
0.790388
0.139842
0.139821
0.128670
0.277420
0.128725
0.128746
0.790387
0.790299
0.129099
0.209286
0.139884
0.139902
0.128746
0.128620
0.128637
0.209286
0.128659
0.209282
0.790401
0.139856
0.128617
0.129099
0.135217
0.790375
0.790367
0.128520
0.128617
0.128617
0.139842
0.789929
0.128617
0.790334
0.135217
0.139842
0.128669
0.790421
0.128670
0.791782
0.128602
0.128658
0.139872
0.139842
0.790344
0.790367
0.128622
0.790299
0.209433
0.790335
0.139884
0.139856
0.808632
0.128622
0.139831
0.790352
0.128746
0.128622
0.128739
0.128647
0.128659
0.128696
0.790146
0.139884
0.791036
0.790093
0.139854
0.128693
0.209055
0.139874
0.790121
0.277420
0.790044
0.128693
0.128654
0.790302
0.139884
0.790375
0.790375
0.720211
0.277420
0.277349
0.295703
0.128647
0.791036
0.790299
0.790346
0.128644
0.136099
0.277362
0.148004
0.139821
0.277420
0.128696
0.128615
0.790385
0.128647
0.139874
0.128634
0.128716
0.128709
0.139938
0.128617
0.139831
0.139902
0.789865
0.128746
0.139874
0.139884
0.271501
0.139854
0.790302
0.139842
0.139874
0.277420
0.128709
0.277420
0.807417
0.790359
0.129099
0.128520
0.128622
0.129099
0.128716
0.139884
0.128693
0.128696
0.139938
0.790268
0.128617
0.128520
0.790300
0.139856
0.128717
0.811082
0.807417
0.128520
0.139854
0.790299
0.791036
0.209272
0.128669
0.139842
0.128659
0.790445
0.209463
0.811040
0.139874
0.793534
0.277420
0.128622
0.277420
0.128669
0.139842
0.209433
0.811012
0.720211
0.811183
0.128658
0.277420
0.790215
0.139874
0.128622
0.128647
0.277420
0.791036
0.790302
0.790396
0.790373
0.776538
0.504073
0.209272
0.139854
0.128677
0.139874
0.128659
0.129099
0.139902
0.128622
0.139842
0.128654
0.148004
0.128520
0.128696
0.128746
0.135217
0.796835
0.128669
0.139872
0.377770
0.139938
0.128622
0.277420
0.790305
0.197096
0.277420
0.139842
0.139874
0.790375
0.128670
0.790322
0.209282
0.790135
0.139854
0.139874
0.128746
0.808632
0.209463
0.128732
0.139854
0.128620
0.139842
0.128658
0.128615
0.791036
0.139842
0.128670
0.139854
0.790299
0.128746
0.139872
0.790302
0.128669
0.790044
0.129099
0.790370
0.504073
0.790332
0.790578
0.790289
0.128670
0.128725
0.128520
0.128620
0.790358
0.277420
0.128677
0.139831
0.136099
0.128746
0.128615
0.128717
0.790276
0.271501
0.139856
0.139931
0.128739
0.128520
0.128670
0.139842
0.128654
0.139854
0.128669
0.790421
0.139842
0.128717
0.128620
0.139874
0.128637
0.128617
0.128634
0.791036
0.128659
0.209286
0.790415
0.139874
0.790376
0.790299
0.135217
0.128622
0.139854
0.128620
0.139889
0.139874
0.139858
0.277486
0.139842
0.139842
0.128620
0.128647
0.139874
0.790432
0.790299
0.209286
0.128637
0.139842
0.128637
0.129099
0.128520
0.128669
0.139842
0.129099
0.128725
0.139874
0.277420
0.128622
0.128696
0.128725
0.139842
0.139874
0.139878
0.790310
0.197096
0.790375
0.128658
0.128670
0.128620
0.128637
0.790302
0.139842
0.789987
0.139854
0.790305
0.128746
0.790310
0.139889
0.139842
0.128696
0.139874
0.128647
0.128696
0.295703
0.128669
0.128732
0.790370
0.128654
0.128739
0.128634
0.790238
0.790413
0.791036
0.128658
0.128520
0.128717
0.139874
0.128677
0.128696
0.128659
0.139874
0.139874
0.128677
0.128637
0.139938
0.807979
0.139931
0.810970
0.811028
0.139874
0.128669
0.129099
0.139831
0.790308
0.128746
0.128620
0.139874
0.128622
0.790335
0.790358
0.139821
0.128602
0.139872
0.790299
0.790363
0.790399
0.139874
0.790383
0.790278
0.128696
0.128658
0.790299
0.139884
0.139910
0.128602
0.790311
0.128725
0.129099
0.811005
0.136327
0.128725
0.790300
0.128746
0.128644
0.790347
0.139884
0.789799
0.143109
0.189134
0.790334
0.793534
0.209463
0.128746
0.139872
0.139854
0.277501
0.128637
0.128617
0.139884
0.139874
0.128746
0.277420
0.277420
0.128617
0.790224
0.128602
0.128659
0.139854
0.139869
0.790236
0.128746
0.128658
0.128617
0.790302
0.209055
0.790379
0.128634
0.790330
0.790409
0.139872
0.128669
0.128670
0.790399
0.128615
0.139874
0.787695
0.790299
0.128617
0.139874
0.209272
0.277373
0.791036
0.790413
0.128717
0.139842
0.790299
0.189134
0.790299
0.790330
0.128677
0.277378
0.277471
0.209286
0.139858
0.810971
0.791036
0.139874
0.209286
0.791036
0.139854
0.128717
0.790302
0.789907
0.791036
0.128647
0.128620
0.139854
0.128725
0.277420
0.789873
0.128634
0.128620
0.790312
0.128696
0.128677
0.128693
0.789846
0.209055
0.139868
0.790278
0.148004
0.128725
0.128637
0.790302
0.136099
0.791036
0.128739
0.129099
0.128622
0.128620
0.128634
0.790370
0.139842
0.139842
0.139842
0.277420
0.791036
0.139902
0.209463
0.791036
0.790299
0.790338
0.143109
0.277420
0.128617
0.792033
0.277420
0.139938
0.790299
0.790295
0.128693
0.128658
0.139872
0.139854
0.139869
0.135217
0.790416
0.128732
0.139931
0.139842
0.790342
0.139831
0.790373
0.790299
0.128647
0.789934
0.129099
0.128717
0.128746
0.128617
0.128669
0.790421
0.128746
0.790021
0.790302
0.139884
0.811679
0.790302
0.128634
0.209272
0.139854
0.128658
0.790357
0.790370
0.790358
0.139842
0.790339
0.128637
0.139858
0.209282
0.139910
0.791036
0.128696
0.790215
0.790367
0.130044
0.128617
0.790303
0.128669
0.128659
0.139938
0.790302
0.790344
0.790206
0.128620
0.790212
0.139910
0.790121
0.277420
0.139874
0.790300
0.284891
0.128669
0.129099
0.790375
0.128620
0.128615
0.128669
0.139854
0.139896
0.135217
0.139854
0.790308
0.128746
0.790302
0.128637
0.139854
0.128602
0.277420
0.139869
0.128637
0.790299
0.807979
0.139874
0.139831
0.277451
0.277378
0.139842
0.277486
0.128637
0.139872
0.136099
0.139874
0.128746
0.794874
0.790421
0.139884
0.641758
0.128620
0.129099
0.811023
0.277420
0.128622
0.139854
0.139884
0.139821
0.790305
0.128602
0.277420
0.128693
0.139821
0.128615
0.790299
0.128622
0.139884
0.790299
0.129099
0.139938
0.790375
0.790682
0.790216
0.139874
0.128732
0.128617
0.130044
0.128717
0.135217
0.790358
0.790396
0.790307
0.139858
0.790299
0.128693
0.504073
0.128617
0.139884
0.790346
0.790299
0.129099
0.139842
0.128717
0.139868
0.139854
0.128659
0.790299
0.128669
0.189134
0.128620
0.790323
0.128716
0.790399
0.128617
0.790385
0.128617
0.128520
0.143040
0.139821
0.790295
0.139842
0.139854
0.128658
0.128693
0.793534
0.128693
0.128669
0.139831
0.277420
0.135217
0.128520
0.128617
0.277420
0.790346
0.128520
0.791036
0.807979
0.139821
0.128732
0.128739
0.143040
0.790357
0.128620
0.139854
0.139869
0.139896
0.128670
0.277471
0.139884
0.139872
0.128634
0.128717
0.128659
0.790415
0.790282
0.139874
0.128520
0.128746
0.209055
0.139842
0.790302
0.128746
0.790338
0.130044
0.790415
0.139821
0.128620
0.139842
0.139874
0.128658
0.790028
0.128620
0.790302
0.128617
0.128670
0.791036
0.139831
0.128644
0.129099
0.790409
0.790682
0.128644
0.790377
0.139884
0.277420
0.790578
0.139938
0.128725
0.128670
0.129099
0.139874
0.139831
0.197096
0.790400
0.790299
0.128617
0.139869
0.129099
0.783558
0.128520
0.783558
0.139842
0.128637
0.128725
0.791036
0.790300
0.790373
0.271501
0.139874
0.139910
0.277420
0.139874
0.128622
0.641758
0.139878
0.128620
0.277468
0.128654
0.128725
0.277420
0.790410
0.129099
0.128634
0.128520
0.790348
0.790385
0.139902
0.128669
0.139884
0.277420
0.139931
0.139874
0.139856
0.143040
0.790330
0.790388
0.790299
0.129099
0.209463
0.139874
0.128658
0.139842
0.790278
0.789797
0.139874
0.128615
0.128746
0.128617
0.139821
0.790302
0.128659
0.128658
0.128670
0.791036
0.128677
0.790424
0.139884
0.790303
0.790288
0.790386
0.791036
0.209463
0.790302
0.197096
0.139842
0.128622
0.128716
0.136327
0.790302
0.139869
0.811012
0.128617
0.139842
0.139874
0.790307
0.793534
0.790440
0.128634
0.135217
0.139874
0.148004
0.128659
0.139831
0.128617
0.804064
0.128725
0.790299
0.139868
0.139884
0.139884
0.128634
0.128746
0.128620
0.128637
0.128520
0.128602
0.277432
0.143109
0.277420
0.277386
0.139872
0.209272
0.791036
0.209272
0.139872
0.790280
0.128602
0.143109
0.790421
0.139842
0.790268
0.128739
0.139938
0.128677
0.135217
0.128670
0.139854
0.128658
0.790324
0.128622
0.790410
0.128693
0.790275
0.128746
0.128622
0.128620
0.791036
0.790302
0.139831
0.790135
0.790370
0.790278
0.128717
0.790302
0.790410
0.128669
0.790295
0.790323
0.128669
0.139878
0.128617
0.128717
0.128634
0.790295
0.139842
0.277420
0.790375
0.128658
0.129099
0.139874
0.139854
0.139902
0.128717
0.129099
0.790276
0.128617
0.790044
0.277374
0.803115
0.128602
0.139854
0.128725
0.148004
0.128520
0.139874
0.139874
0.129099
0.790336
0.790355
0.139874
0.790238
0.790299
0.790302
0.135217
0.128669
0.139874
0.128620
0.790299
0.139821
0.139869
0.128617
0.139842
0.790346
0.790310
0.128739
0.504073
0.803115
0.189134
0.139872
0.790415
0.139872
0.139858
0.129099
0.277420
0.790289
0.139884
0.790375
0.277420
0.139902
0.128670
0.128602
0.790317
0.128620
0.128658
0.139831
0.139842
0.139874
0.128670
0.128658
0.139884
0.128620
0.128669
0.792033
0.128654
0.128658
0.128746
0.128622
0.790358
0.128620
0.128693
0.128617
0.128669
0.783558
0.790302
0.128746
0.139874
0.790302
0.128670
0.135217
0.791036
0.790299
0.129099
0.128617
0.139856
0.277420
0.790375
0.209055
0.128620
0.128647
0.128617
0.139902
0.128602
0.790373
0.139872
0.128620
0.139874
0.139858
0.790363
0.791036
0.794874
0.128669
0.790299
0.128746
0.128617
0.790310
0.128620
0.128693
0.139842
0.128716
0.139842
0.789946
0.791036
0.811005
0.791036
0.790146
0.805401
0.128659
0.139854
0.790355
0.790330
0.139902
0.128634
0.128746
0.811028
0.128602
0.143109
0.139938
0.790335
0.128620
0.805401
0.139856
0.128669
0.791036
0.148004
0.790364
0.139842
0.139878
0.129099
0.128670
0.128658
0.139831
0.790344
0.139842
0.128669
0.790302
0.720211
0.790373
0.139821
0.128622
0.790373
0.139910
0.791036
0.790375
0.139856
0.790206
0.790093
0.128617
0.135217
0.128670
0.128634
0.139842
0.139854
0.129099
0.790373
0.128659
0.790284
0.129099
0.128654
0.139869
0.139874
0.128620
0.139874
0.129099
0.148004
0.790467
0.128670
0.790304
0.791036
0.139884
0.811023
0.128677
0.128622
0.795127
0.128746
0.641758
0.139854
0.129099
0.790317
0.139842
0.128709
0.790335
0.790283
0.136099
0.139874
0.139910
0.209463
0.791036
0.130044
0.128658
0.128669
0.139854
0.790362
0.277420
0.790299
0.790346
0.139884
0.789796
0.139842
0.790388
0.128746
0.128677
0.277420
0.128696
0.128658
0.128647
0.128659
0.794874
0.129099
0.790682
0.128617
0.209286
0.128717
0.790146
0.790334
0.139869
0.139889
0.790388
0.295703
0.139884
0.139842
0.790319
0.128622
0.787695
0.128659
0.128670
0.790386
0.139884
0.128725
0.128602
0.130044
0.128634
0.128637
0.139874
0.128620
0.139821
0.790236
0.135217
0.504073
0.139884
0.790377
0.139889
0.128615
0.128634
0.790358
0.790396
0.128669
0.795127
0.139884
0.139872
0.128725
0.790409
0.128654
0.790401
0.128739
0.790299
0.139842
0.209242
0.139821
0.128717
0.128669
0.129099
0.277451
0.139831
0.790280
0.790339
0.128696
0.139854
0.277420
0.128637
0.128617
0.128620
0.790302
0.790302
0.796835
0.790409
0.811034
0.277420
0.790456
0.139874
0.790326
0.128602
0.139831
0.790288
0.128602
0.128658
0.139878
0.128669
0.128658
0.128617
0.128659
0.790415
0.277420
0.197096
0.128732
0.128658
0.139884
0.139874
0.128647
0.128520
0.129099
0.128696
0.139938
0.128637
0.139842
0.128739
0.209463
0.128620
0.129099
0.790268
0.139872
0.128637
0.790375
0.789907
0.139884
0.139842
0.128725
0.128693
0.128637
0.128520
0.787695
0.128696
0.139854
0.128658
0.128620
0.139854
0.128620
0.128670
0.128696
0.128617
0.790515
0.803115
0.790370
0.790276
0.128658
0.139896
0.790440
0.128669
0.789853
0.139872
0.790368
0.128602
0.139842
0.790236
0.128670
0.790375
0.128669
0.139884
0.287147
0.790338
0.139842
0.790302
0.139874
0.128654
0.790299
0.139854
0.128746
0.790578
0.789987
0.693277
0.139842
0.128669
0.128746
0.189134
0.128520
0.139889
0.790301
0.128637
0.790299
0.790386
0.790299
0.128620
0.139938
0.128670
0.790312
0.128617
0.790375
0.128622
0.139854
0.128620
0.135217
0.139874
0.128716
0.790299
0.139874
0.128520
0.128658
0.791036
0.128520
0.128670
0.148004
0.139874
0.139931
0.139884
0.787695
0.277420
0.128670
0.128677
0.139884
0.139854
0.128670
0.128746
0.139884
0.128659
0.139854
0.129099
0.790375
0.139858
0.128670
0.128602
0.128647
0.197096
0.128693
0.790270
0.135217
0.128602
0.128620
0.128617
0.790338
0.139874
0.139854
0.135217
0.277465
0.790385
0.128670
0.128746
0.139874
0.790288
0.139831
0.139931
0.128620
0.277420
0.790306
0.790401
0.789293
0.128520
0.128622
0.790295
0.136327
0.789853
0.139874
0.139842
0.136327
0.790287
0.128602
0.277420
0.277316
0.790324
0.790334
0.128637
0.143109
0.139842
0.790305
0.128696
0.790396
0.139896
0.139868
0.377770
0.790121
0.143040
0.790302
0.791036
0.136099
0.790317
0.128658
0.139874
0.790330
0.139831
0.139874
0.209272
0.139874
0.128520
0.139858
0.790348
0.277420
0.641758
0.128602
0.139842
0.790339
0.128739
0.128739
0.139889
0.139821
0.128725
0.209463
0.790386
0.128677
0.790373
0.790334
0.139869
0.139938
0.139874
0.790410
0.139874
0.139869
0.128696
0.713694
0.128520
0.139884
0.139884
0.790299
0.790299
0.139842
0.197096
0.128739
0.139854
0.790410
0.128602
0.143109
0.139842
0.790300
0.139889
0.128634
0.209272
0.128717
0.209242
0.128717
0.128659
0.128659
0.139854
0.128520
0.811012
0.128634
0.790396
0.128620
0.139938
0.128669
0.128670
0.790377
0.277386
0.128658
0.128669
0.789846
0.139902
0.139931
0.128669
0.790313
0.277420
0.128693
0.128669
0.128670
0.790238
0.790299
0.790388
0.128670
0.128669
0.790373
0.128696
0.790352
0.790346
0.209282
0.139931
0.790456
0.128717
0.790319
0.139910
0.803115
0.139842
0.128637
0.139884
0.139938
0.790332
0.128637
0.790318
0.139854
0.139868
0.129099
0.139842
0.128659
0.790375
0.791036
0.139854
0.139854
0.789957
0.128693
0.139884
0.128658
0.789716
0.128669
0.209272
0.277420
0.790288
0.790236
0.790308
0.790386
0.271501
0.128670
0.128658
0.129099
0.139902
0.790302
0.128696
0.128637
0.209286
0.209286
0.790299
0.128602
0.790146
0.740330
0.790299
0.128677
0.139854
0.790388
0.277420
0.128602
0.790853
0.139842
0.790284
0.790456
0.128602
0.139854
0.128670
0.790306
0.790319
0.790363
0.790386
0.128637
0.143109
0.790300
0.128620
0.790682
0.128620
0.128677
0.139854
0.128725
0.128520
0.139854
0.790362
0.277420
0.277402
0.128670
0.790021
0.128677
0.790301
0.128620
0.128637
0.128602
0.128620
0.128658
0.128659
0.791036
0.790375
0.790401
0.128620
0.128669
0.128620
0.790299
0.128634
0.139854
0.807417
0.139874
0.128693
0.139831
0.128637
0.139910
0.139821
0.790284
0.128696
0.790370
0.128669
0.139878
0.790334
0.808763
0.139902
0.209272
0.139842
0.787695
0.128696
0.791036
0.790364
0.139884
0.139872
0.128634
0.209286
0.790410
0.128617
0.139854
0.790295
0.128520
0.790424
0.139874
0.790265
0.790338
0.135217
0.128717
0.128669
0.790299
0.139931
0.790265
0.791036
0.139874
0.128602
0.790299
0.139931
0.790303
0.128644
0.139884
0.128669
0.811183
0.790282
0.790307
0.791036
0.277402
0.197096
0.790269
0.790299
0.139902
0.128658
0.128637
0.128659
0.128670
0.128617
0.143109
0.128670
0.128637
0.790310
0.139868
0.128622
0.128620
0.128658
0.139874
0.277320
0.128617
0.139868
0.128746
0.128617
0.128716
0.790373
0.197096
0.128725
0.139858
0.790344
0.128659
0.277420
0.209055
0.128520
0.139831
0.139831
0.790421
0.277373
0.128659
0.139896
0.128520
0.128670
0.128716
0.790344
0.128620
0.790421
0.787695
0.128634
0.128659
0.795127
0.791036
0.139896
0.139842
0.139938
0.790166
0.128644
0.139902
0.128520
0.128622
0.139896
0.129099
0.128669
0.791036
0.791036
0.128696
0.139931
0.790375
0.128677
0.790299
0.128520
0.139889
0.790301
0.139874
0.790299
0.128637
0.139889
0.790305
0.277420
0.128617
0.128670
0.128622
0.139902
0.790329
0.791036
0.139884
0.143040
0.139884
0.128622
0.128669
0.128520
0.790440
0.128520
0.790135
0.790363
0.128637
0.128670
0.128520
0.143109
0.139878
0.790288
0.128670
0.139896
0.790302
0.189134
0.790203
0.790385
0.128670
0.790375
0.139884
0.139874
0.790132
0.128622
0.790618
0.128669
0.128520
0.189134
0.128659
0.128620
0.789865
0.139821
0.790339
0.790302
0.128602
0.139854
0.209242
0.794874
0.139854
0.139874
0.790166
0.128637
0.790299
0.789996
0.139872
0.277420
0.790372
0.128520
0.139869
0.805401
0.128617
0.139872
0.789735
0.139874
0.139874
0.790300
0.209286
0.790334
0.128670
0.791036
0.135217
0.795127
0.790375
0.128520
0.128746
0.128622
0.209055
0.139858
0.791200
0.791036
0.136327
0.139938
0.139874
0.139856
0.128637
0.128634
0.128520
0.790375
0.790335
0.128617
0.790377
0.209272
0.139858
0.128716
0.277308
0.139931
0.139854
0.128670
0.128670
0.128615
0.791036
0.790330
0.277420
0.130044
0.139869
0.128658
0.128669
0.790379
0.139854
0.129099
0.143040
0.148004
0.790342
0.128716
0.139874
0.811005
0.143109
0.790365
0.790302
0.790232
0.128620
0.790301
0.139854
0.791052
0.128620
0.790299
0.128637
0.790299
0.790395
0.139872
0.128615
0.128647
0.790302
0.143109
0.128622
0.790363
0.128746
0.790299
0.790299
0.128716
0.128746
0.790299
0.128746
0.790302
0.139874
0.128622
0.139889
0.790409
0.139889
0.790391
0.128658
0.271501
0.135217
0.129099
0.128732
0.139874
0.139878
0.139854
0.139902
0.790332
0.130044
0.128634
0.139874
0.790334
0.128746
0.139884
0.209282
0.791036
0.139910
0.136327
0.790375
0.128670
0.139842
0.789934
0.790302
0.128725
0.129099
0.139842
0.209272
0.128716
0.277420
0.128637
0.128620
0.139884
0.139854
0.790299
0.209282
0.790338
0.790303
0.128658
0.139842
0.128637
0.139910
0.128725
0.139854
0.790388
0.139856
0.128658
0.790299
0.139842
0.139842
0.790268
0.139874
0.790388
0.790107
0.139884
0.790301
0.277443
0.128602
0.790274
0.129099
0.128602
0.128520
0.277420
0.128620
0.139842
0.209055
0.128709
0.139821
0.128746
0.504073
0.139858
0.139896
0.128615
0.790302
0.136327
0.139854
0.139884
0.128637
0.139931
0.790388
0.128617
0.790375
0.128634
0.277420
0.135217
0.128637
0.790363
0.790036
0.128617
0.128644
0.139854
0.128658
0.129099
0.139910
0.790401
0.139874
0.139884
0.128717
0.128520
0.128658
0.128658
0.139874
0.790232
0.128658
0.128725
0.209272
0.139872
0.139868
0.209463
0.128658
0.139910
0.128617
0.197096
0.129099
0.148004
0.129099
0.143109
0.128746
0.807979
0.209242
0.128669
0.790312
0.136327
0.139938
0.271501
0.791036
0.790278
0.128693
0.128520
0.139874
0.209463
0.128693
0.791036
0.209055
0.789773
0.128658
0.790156
0.128634
0.128677
0.135217
0.128617
0.139854
0.128620
0.128658
0.139868
0.128732
0.139874
0.791760
0.139854
0.128669
0.136099
0.128693
0.139938
0.129099
0.791036
0.139874
0.791036
0.277513
0.791036
0.139854
0.139842
0.790299
0.139842
0.790334
0.128622
0.128717
0.790306
0.128620
0.128658
0.277420
0.790268
0.139902
0.197096
0.790278
0.128658
0.641758
0.795127
0.790409
0.790310
0.128725
0.139902
0.277420
0.800128
0.139854
0.128746
0.128696
0.139884
0.139874
0.139869
0.277420
0.139931
0.790283
0.128696
0.209286
0.128717
0.139938
0.128644
0.277420
0.128622
0.128658
0.136327
0.197096
0.128696
0.277512
0.128617
0.128659
0.790375
0.128746
0.128659
0.790319
0.139868
0.277320
0.128670
0.139874
0.148004
0.791036
0.128696
0.128716
0.790381
0.128634
0.128647
0.800128
0.128637
0.790682
0.128658
0.128622
0.790319
0.790386
0.128617
0.139884
0.139831
0.139874
0.209433
0.128634
0.128634
0.128634
0.139874
0.790295
0.139842
0.790373
0.139874
0.139872
0.139889
0.129099
0.128622
0.790388
0.128696
0.128602
0.135217
0.128637
0.139931
0.790396
0.128654
0.128670
0.139869
0.128725
0.128716
0.790370
0.129099
0.790394
0.139910
0.790274
0.139874
0.128746
0.277420
0.790306
0.128654
0.128654
0.128617
0.277420
0.128725
0.129099
0.139872
0.128670
0.128620
0.787695
0.790359
0.139910
0.790302
0.128709
0.790236
0.789724
0.128602
0.128670
0.139872
0.139831
0.129099
0.790302
0.128717
0.790295
0.128617
0.139874
0.790366
0.790352
0.128669
0.789840
0.790322
0.139821
0.128644
0.790682
0.139874
0.139872
0.128622
0.791036
0.139858
0.139874
0.139931
0.139821
0.128520
0.139874
0.790362
0.139854
0.139896
0.790301
0.197096
0.129099
0.139884
0.128670
0.790212
0.139931
0.810971
0.504073
0.129099
0.790319
0.128746
0.128716
0.129099
0.790394
0.517745
0.128716
0.128669
0.128669
0.139854
0.790302
0.129099
0.139902
0.139931
0.790375
0.790300
0.128717
0.139854
0.790386
0.790410
0.128717
0.790283
0.139842
0.277501
0.128622
0.790358
0.128716
0.128732
0.277420
0.128670
0.277420
0.128602
0.790421
0.135217
0.135217
0.139858
0.128725
0.791036
0.790456
0.790445
0.209055
0.128717
0.790293
0.128617
0.135217
0.128622
0.790467
0.139854
0.139874
0.128717
0.790409
0.128617
0.790339
0.135217
0.504073
0.128620
0.790373
0.128520
0.128670
0.139821
0.139842
0.128602
0.791036
0.129099
0.128658
0.209433
0.277509
0.791036
0.139856
0.139869
0.128637
0.128520
0.790299
0.139842
0.128659
0.139884
0.129099
0.790299
0.128622
0.277420
0.504073
0.128622
0.128647
0.139858
0.128637
0.790310
0.139868
0.790275
0.790388
0.139869
0.128615
0.794874
0.790319
0.209242
0.139884
0.139884
0.790335
0.277420
0.277420
0.128634
0.139854
0.139842
0.128617
0.143040
0.128725
0.128520
0.139854
0.128693
0.139842
0.139878
0.128520
0.277420
0.790370
0.693277
0.791036
0.790392
0.790276
0.139938
0.128637
0.790132
0.139821
0.139902
0.128659
0.189134
0.790302
0.128520
0.790413
0.790299
0.810998
0.790375
0.139889
0.139884
0.128670
0.139874
0.139884
0.277510
0.128717
0.128622
0.128637
0.128659
0.139889
0.790346
0.139854
0.139902
0.139854
0.148004
0.790202
0.791036
0.139868
0.277420
0.790202
0.209286
0.803115
0.139869
0.139842
0.790299
0.139842
0.277420
0.790375
0.790305
0.790319
0.139831
0.128520
0.128746
0.790206
0.790306
0.128693
0.139938
0.139821
0.790395
0.277471
0.128637
0.128647
0.136099
0.790395
0.128620
0.790302
0.790355
0.139874
0.130044
0.139874
0.790334
0.791036
0.790299
0.790332
0.277321
0.128716
0.790421
0.128717
0.720211
0.277420
0.139910
0.209055
0.128520
0.128669
0.128696
0.811012
0.790305
0.139884
0.128670
0.139874
0.790308
0.128746
0.791036
0.790385
0.139874
0.128696
0.277429
0.128644
0.139854
0.790299
0.139842
0.128658
0.139910
0.128658
0.128669
0.148004
0.128520
0.277420
0.128746
0.139889
0.790347
0.279340
0.791036
0.139902
0.790363
0.128746
0.128717
0.139821
0.139874
0.790288
0.139874
0.139884
0.139854
0.791036
0.504073
0.139896
0.128520
0.209463
0.139869
0.139884
0.139856
0.139854
0.128693
0.789934
0.139884
0.139874
0.130044
0.128746
0.790288
0.789723
0.128677
0.128520
0.791036
0.129099
0.790284
0.209055
0.129099
0.139842
0.128520
0.791036
0.794862
0.129099
0.789873
0.790299
0.128693
0.128620
0.790302
0.139869
0.139902
0.790395
0.129099
0.790295
0.139872
0.139884
0.128658
0.128620
0.790288
0.277420
0.790302
0.791036
0.128658
0.128669
0.790353
0.277420
0.277436
0.128670
0.680480
0.277420
0.790329
0.790299
0.209286
0.139931
0.277420
0.128659
0.128670
0.128622
0.790410
0.128670
0.277429
0.139856
0.790313
0.790375
0.790401
0.139910
0.128746
0.787695
0.128659
0.128654
0.128693
0.791036
0.136327
0.136099
0.129099
0.128622
0.810970
0.139842
0.128716
0.209282
0.277415
0.128696
0.128677
0.129099
0.139874
0.277297
0.148004
0.139842
0.128669
0.143040
0.139938
0.128717
0.790392
0.209242
0.789865
0.128658
0.790467
0.790359
0.128620
0.143109
0.139842
0.128670
0.139842
0.136327
0.139874
0.139854
0.790021
0.128659
0.790344
0.789735
0.139842
0.209433
0.139874
0.790440
0.791036
0.197096
0.128670
0.139884
0.790284
0.791036
0.128634
0.129099
0.128647
0.791036
0.128677
0.139854
0.139872
0.128746
0.790299
0.128620
0.139874
0.795127
0.790336
0.128520
0.790236
0.128677
0.139842
0.803926
0.139902
0.139856
0.135217
0.139831
0.139854
0.139874
0.209463
0.139874
0.277468
0.128637
0.128746
0.128654
0.128658
0.790421
0.128637
0.128669
0.139854
0.128620
0.504073
0.790375
0.139902
0.277373
0.128658
0.139869
0.128634
0.139910
0.129099
0.790299
0.790339
0.139842
0.139854
0.139896
0.128669
0.128520
0.128602
0.277420
0.128644
0.139889
0.790370
0.139931
0.128670
0.128670
0.790362
0.790302
0.790350
0.148004
0.794874
0.277471
0.128677
0.790299
0.139884
0.277420
0.128696
0.791036
0.139931
0.790424
0.139831
0.128520
0.128677
0.129099
0.139874
0.790375
0.790302
0.128677
0.139874
0.128634
0.128739
0.139821
0.790293
0.128617
0.128658
0.128670
0.791036
0.139831
0.139874
0.139842
0.790388
0.139842
0.790299
0.790304
0.790409
0.128634
0.128746
0.128622
0.790334
0.128669
0.129099
0.128746
0.139831
0.139874
0.790413
0.128620
0.128617
0.128717
0.139902
0.128693
0.277420
0.128520
0.128725
0.277420
0.139874
0.128670
0.139874
0.128658
0.128637
0.792033
0.209242
0.790306
0.128647
0.209055
0.139938
0.128637
0.790375
0.128725
0.790302
0.128669
0.128602
0.197096
0.128659
