0.785576
0.139293
0.139298
0.139270
0.128544
0.275120
0.785457
0.128520
0.139334
0.128520
0.139299
0.128381
0.128980
0.209344
0.785690
0.139270
0.128980
0.139322
0.128538
0.128980
0.139300
0.615026
0.128980
0.128505
0.136636
0.128980
0.139337
0.139256
0.785677
0.785598
0.274978
0.784978
0.785655
0.210030
0.139337
0.785129
0.128381
0.128443
0.128527
0.128574
0.785690
0.786341
0.615026
0.128475
0.128505
0.128527
0.128448
0.806778
0.139293
0.128574
0.128505
0.128527
0.789479
0.139334
0.785576
0.128443
0.785592
0.786334
0.128574
0.785583
0.785661
0.785597
0.785575
0.139252
0.139293
0.785726
0.139280
0.805805
0.798829
0.128475
0.139337
0.139314
0.134853
0.128505
0.139301
0.130525
0.128418
0.128501
0.275120
0.128574
0.785667
0.128437
0.139300
0.128443
0.128466
0.128497
0.785726
0.139270
0.785128
0.128437
0.275120
0.139280
0.128501
0.275120
0.139248
0.785576
0.785659
0.785543
0.785633
0.136636
0.139292
0.275120
0.139293
0.128544
0.785609
0.139289
0.785576
0.128502
0.785676
0.128538
0.128538
0.786334
0.128437
0.139293
0.128497
0.139300
0.139252
0.128544
0.130497
0.139319
0.139337
0.785576
0.128980
0.128980
0.139320
0.128381
0.785363
0.139300
0.785491
0.128566
0.785576
0.789033
0.130497
0.128431
0.139293
0.785625
0.785543
0.786334
0.139293
0.786334
0.785527
0.785644
0.139293
0.128469
0.786334
0.209900
0.128566
0.275120
0.128381
0.785857
0.785682
0.128980
0.785634
0.275120
0.128381
0.139299
0.786058
0.128502
0.128431
0.785685
0.785576
0.128469
0.139337
0.790579
0.128527
0.139293
0.128469
0.139293
0.139337
0.128469
0.139334
0.128466
0.785694
0.128469
0.139300
0.139293
0.790579
0.128544
0.139337
0.785607
0.786334
0.785529
0.128425
0.785857
0.790579
0.785525
0.785576
0.128475
0.785298
0.785576
0.785382
0.128505
0.151758
0.139256
0.128505
0.128566
0.275120
0.785625
0.785576
0.783252
0.128497
0.139299
0.128538
0.785626
0.199622
0.785719
0.128448
0.128544
0.785648
0.785682
0.275120
0.786334
0.128381
0.139256
0.128475
0.139300
0.209967
0.128544
0.786284
0.139320
0.128574
0.128566
0.128505
0.139299
0.128443
0.128381
0.128443
0.139320
0.128544
0.128381
0.478679
0.139299
0.139314
0.134853
0.786768
0.128381
0.128544
0.139300
0.128469
0.210015
0.128443
0.786341
0.128381
0.250713
0.209344
0.785592
0.128381
0.209900
0.151758
0.785063
0.128980
0.785569
0.139256
0.128980
0.275120
0.128381
0.128520
0.785635
0.134853
0.128381
0.785576
0.188293
0.785696
0.128448
0.275120
0.139293
0.128544
0.128443
0.785699
0.785595
0.209967
0.275120
0.785543
0.139293
0.139248
0.275120
0.210015
0.139299
0.209900
0.785569
0.128466
0.139319
0.128443
0.128502
0.139299
0.785640
0.139256
0.139320
0.139300
0.139300
0.275120
0.139337
0.478679
0.786334
0.139301
0.275120
0.128574
0.128486
0.128538
0.128502
0.128574
0.128475
0.785659
0.139270
0.806717
0.128566
0.128501
0.785703
0.785567
0.151758
0.785601
0.128469
0.128466
0.128418
0.788257
0.128566
0.128381
0.128469
0.128566
0.139299
0.128574
0.785651
0.139300
0.275120
0.138365
0.139299
0.139292
0.128443
0.128456
0.785583
0.785641
0.785758
0.128534
0.785672
0.128469
0.785592
0.209344
0.128980
0.139299
0.785659
0.128431
0.139293
0.188293
0.785564
0.199622
0.128980
0.128381
0.139319
0.139299
0.139350
0.128527
0.806783
0.139299
0.128469
0.128443
0.785695
0.786334
0.128381
0.128443
0.785690
0.139256
0.128501
0.128443
0.128980
0.128466
0.785691
0.128381
0.139337
0.128544
0.785622
0.275120
0.128502
0.128443
0.139252
0.128469
0.128544
0.785022
0.139270
0.128566
0.786341
0.128538
0.210015
0.128520
0.785576
0.785596
0.128574
0.139293
0.139337
0.128431
0.128469
0.275120
0.139314
0.785703
0.250713
0.139256
0.139300
0.275120
0.806747
0.128505
0.128466
0.795954
0.139299
0.785554
0.128574
0.128505
0.139300
0.199622
0.139298
0.128381
0.785694
0.763116
0.209967
0.139299
0.139270
0.275120
0.128469
0.139280
0.139256
0.785632
0.128443
0.128505
0.785588
0.139299
0.128574
0.785592
0.128486
0.785661
0.128469
0.139314
0.806766
0.786334
0.785576
0.139293
0.128505
0.128381
0.805882
0.139293
0.139319
0.128443
0.786334
0.128437
0.139293
0.785648
0.128980
0.128443
0.785601
0.128566
0.785659
0.785580
0.128538
0.139293
0.128544
0.128538
0.128574
0.139350
0.128418
0.128381
0.139319
0.139299
0.785699
0.151758
0.128497
0.128443
0.128980
0.785053
0.139334
0.128456
0.139292
0.139337
0.785576
0.787421
0.128381
0.136636
0.785562
0.128437
0.128574
0.139319
0.275120
0.209900
0.139319
0.788257
0.210015
0.128443
0.128502
0.134853
0.128574
0.275120
0.275120
0.128469
0.806679
0.785625
0.139299
0.139299
0.139319
0.785649
0.628246
0.139337
0.128475
0.805805
0.210015
0.128980
0.139319
0.128980
0.806766
0.785678
0.128466
0.785631
0.139289
0.139300
0.128502
0.139293
0.128538
0.139337
0.139299
0.785698
0.139299
0.128431
0.785673
0.785053
0.139293
0.139337
0.785576
0.785667
0.139289
0.210015
0.785378
0.128501
0.139319
0.139299
0.786334
0.128381
0.786334
0.128566
0.785715
0.792647
0.792914
0.139319
0.139248
0.128475
0.128437
0.128505
0.128486
0.139300
0.139293
0.209900
0.785569
0.139298
0.785698
0.785669
0.785652
0.785611
0.128381
0.275120
0.128980
0.128574
0.128469
0.130525
0.785677
0.785576
0.128486
0.128544
0.275120
0.785644
0.785592
0.128448
0.139293
0.785589
0.128425
0.128566
0.275154
0.128431
0.785580
0.128505
0.139293
0.210022
0.275054
0.795954
0.128534
0.275120
0.785633
0.128566
0.275120
0.786334
0.128437
0.139337
0.139301
0.210022
0.128475
0.275035
0.128437
0.785576
0.785569
0.128381
0.139300
0.615026
0.139319
0.139320
0.128544
0.136636
0.128469
0.139337
0.128469
0.275120
0.275120
0.785661
0.275120
0.128456
0.128418
0.128544
0.139270
0.128566
0.130525
0.785648
0.130525
0.128456
0.785422
0.139337
0.128475
0.139337
0.785576
0.785576
0.785625
0.128501
0.128381
0.128497
0.128505
0.136636
0.128538
0.785135
0.139248
0.128475
0.128475
0.128538
0.128486
0.128574
0.785677
0.128520
0.139299
0.785587
0.128566
0.128425
0.209900
0.128486
0.134853
0.139298
0.128505
0.128448
0.275120
0.128501
0.786334
0.128443
0.128574
0.128574
0.139337
0.130525
0.785592
0.134853
0.275146
0.800003
0.139299
0.128381
0.210022
0.139256
0.128544
0.128538
0.785613
0.128566
0.785592
0.128437
0.128566
0.128980
0.785592
0.134853
0.785125
0.139299
0.139299
0.128418
0.139299
0.128486
0.275120
0.209900
0.139280
0.139299
0.786334
0.128431
0.139256
0.785699
0.785624
0.128381
0.151758
0.785661
0.128501
0.128437
0.210015
0.128381
0.128574
0.785582
0.139293
0.134853
0.128502
0.128381
0.785685
0.139319
0.128381
0.785626
0.128566
0.785576
0.139252
0.139293
0.139298
0.785592
0.139280
0.785661
0.786334
0.138365
0.785685
0.188293
0.785165
0.128544
0.785367
0.785651
0.785592
0.275120
0.785611
0.785666
0.128448
0.151758
0.785561
0.210030
0.786341
0.785625
0.792462
0.139337
0.139320
0.128544
0.151758
0.139289
0.128425
0.139300
0.139293
0.139293
0.139300
0.786334
0.128538
0.785723
0.785657
0.275120
0.785576
0.801136
0.785588
0.785576
0.128466
0.785576
0.785690
0.128980
0.128486
0.128443
0.128574
0.785857
0.128501
0.139350
0.139299
0.139337
0.188293
0.130497
0.139337
0.128501
0.785527
0.139289
0.785576
0.785129
0.785677
0.128980
0.151758
0.128527
0.806808
0.128980
0.128502
0.785625
0.139289
0.128497
0.128418
0.128980
0.139293
0.785576
0.128566
0.128544
0.806756
0.139334
0.128980
0.139292
0.139337
0.785659
0.128574
0.615026
0.139319
0.210015
0.785633
0.139319
0.128505
0.128497
0.128381
0.275114
0.785576
0.128527
0.139299
0.210030
0.139322
0.806717
0.128501
0.788827
0.785711
0.209967
0.128574
0.806783
0.128475
0.139299
0.786334
0.785669
0.128527
0.128443
0.128431
0.139337
0.785603
0.790579
0.128980
0.128425
0.128544
0.786334
0.134853
0.785647
0.139301
0.128497
0.128527
0.785579
0.139300
0.139350
0.128544
0.128448
0.128443
0.128418
0.128544
0.785135
0.209900
0.786334
0.128980
0.128574
0.128501
0.128520
0.130525
0.130497
0.128502
0.136636
0.139337
0.134853
0.210030
0.128574
0.785672
0.128381
0.786334
0.789479
0.128501
0.785588
0.786334
0.128980
0.134853
0.128980
0.785609
0.128443
0.786334
0.128448
0.139300
0.139256
0.209900
0.786334
0.478679
0.250713
0.130525
0.785857
0.806710
0.128437
0.139337
0.785576
0.128431
0.128538
0.788827
0.806782
0.139334
0.139319
0.413381
0.139301
0.802785
0.139337
0.128502
0.139337
0.785576
0.128381
0.785543
0.128527
0.128475
0.128501
0.128475
0.188293
0.785576
0.209344
0.128443
0.210015
0.139337
0.785576
0.128534
0.210030
0.209880
0.785711
0.128486
0.786334
0.785693
0.136636
0.128538
0.128544
0.785625
0.139301
0.128520
0.785568
0.785574
0.806766
0.785674
0.785661
0.128443
0.128980
0.128475
0.128980
0.785655
0.139289
0.128566
0.128980
0.139299
0.139301
0.139299
0.139337
0.275120
0.128502
0.785576
0.139248
0.786334
0.139299
0.128486
0.275116
0.785165
0.139314
0.128574
0.785672
0.139252
0.785592
0.128497
0.628246
0.139299
0.209344
0.128501
0.139280
0.128501
0.786334
0.275120
0.128431
0.806793
0.785571
0.128448
0.139299
0.139300
0.128505
0.128469
0.139300
0.785695
0.128980
0.128574
0.139300
0.139280
0.274993
0.785568
0.785569
0.785609
0.128469
0.128980
0.785576
0.139289
0.785583
0.139293
0.139292
0.128544
0.785632
0.128574
0.128443
0.139299
0.128469
0.785628
0.139298
0.275056
0.128544
0.785661
0.188293
0.785694
0.128502
0.785693
0.139337
0.139350
0.785685
0.128574
0.134853
0.139300
0.130525
0.785695
0.139293
0.128418
0.128502
0.128443
0.139314
0.128456
0.209344
0.128497
0.785104
0.139300
0.128502
0.128505
0.785726
0.128431
0.785592
0.134853
0.785690
0.128381
0.128466
0.139300
0.478679
0.785592
0.275116
0.139300
0.128497
0.128534
0.128456
0.785592
0.128574
0.128443
0.139337
0.785677
0.128501
0.128566
0.139293
0.717926
0.128443
0.139319
0.785694
0.128381
0.128443
0.139337
0.128538
0.128505
0.785644
0.139320
0.128431
0.275120
0.774828
0.128381
0.139293
0.128538
0.128448
0.128544
0.139299
0.275120
0.139292
0.128448
0.785661
0.128448
0.139301
0.785720
0.139292
0.785628
0.128437
0.790579
0.128437
0.128437
0.785576
0.785632
0.806756
0.210015
0.128520
0.128538
0.128544
0.128538
0.785666
0.785529
0.128448
0.128466
0.274993
0.785565
0.128574
0.139337
0.785576
0.139293
0.275120
0.128502
0.785576
0.128980
0.139293
0.785682
0.128520
0.128448
0.785674
0.785524
0.139314
0.139319
0.806733
0.139293
0.139300
0.128501
0.139293
0.785652
0.785644
0.139299
0.786334
0.128574
0.128448
0.139350
0.128425
0.785673
0.128469
0.139299
0.785422
0.210030
0.804462
0.786334
0.785694
0.139334
0.139293
0.785651
0.128437
0.128381
0.139280
0.134853
0.139256
0.139298
0.785576
0.128469
0.128502
0.785365
0.128980
0.785644
0.128536
0.128505
0.139293
0.138365
0.806694
0.128566
0.792914
0.128443
0.134853
0.128443
0.139337
0.139337
0.139299
0.275012
0.786334
0.128381
0.139299
0.128418
0.128443
0.250713
0.128501
0.199622
0.138365
0.136636
0.128418
0.785682
0.128437
0.139314
0.785592
0.615026
0.128574
0.786334
0.139293
0.786109
0.128538
0.128448
0.128381
0.139293
0.785665
0.275120
0.128502
0.128566
0.128448
0.128502
0.128469
0.785592
0.128980
0.787131
0.785576
0.785626
0.786334
0.139252
0.128574
0.785030
0.139300
0.785363
0.785125
0.128502
0.138365
0.128536
0.139270
0.139252
0.785651
0.139293
0.275035
0.199622
0.139301
0.275120
0.413381
0.128501
0.128443
0.139319
0.128527
0.128448
0.209900
0.130497
0.188293
0.139280
0.785751
0.139301
0.785176
0.139337
0.128501
0.128469
0.793464
0.128469
0.128574
0.128505
0.785628
0.128505
0.785699
0.139293
0.139334
0.128980
0.128980
0.209967
0.128443
0.128566
0.128980
0.128502
0.128466
0.128497
0.139293
0.128475
0.139337
0.139314
0.151758
0.128980
0.785758
0.785576
0.785536
0.128566
0.139293
0.785635
0.785622
0.785605
0.785554
0.139293
0.275172
0.128497
0.275090
0.139334
0.128544
0.128520
0.139301
0.128466
0.139300
0.785703
0.128486
0.128574
0.139337
0.128505
0.785576
0.139252
0.128544
0.789033
0.785625
0.139337
0.128527
0.139337
0.128443
0.139293
0.785644
0.786334
0.275120
0.128381
0.785588
0.785576
0.128431
0.275120
0.139337
0.785597
0.128980
0.128448
0.785659
0.785588
0.209880
0.615026
0.128469
0.128520
0.128538
0.128505
0.785382
0.128486
0.139248
0.128381
0.785672
0.128502
0.275137
0.128566
0.785626
0.275120
0.785104
0.210030
0.785646
0.210015
0.209900
0.128502
0.210015
0.785659
0.134853
0.785576
0.139300
0.139300
0.781305
0.139293
0.139293
0.786334
0.785676
0.130525
0.785624
0.785588
0.139292
0.128456
0.785723
0.128544
0.128469
0.785627
0.130497
0.128502
0.139293
0.785570
0.139337
0.792647
0.128527
0.128448
0.128980
0.128538
0.785536
0.139337
0.139299
0.786334
0.785633
0.139320
0.806752
0.139314
0.139337
0.128574
0.139270
0.139299
0.139293
0.128469
0.785592
0.139248
0.275172
0.139293
0.785683
0.139337
0.785661
0.275120
0.128497
0.785592
0.128501
0.785576
0.128437
0.128469
0.139337
0.786334
0.139299
0.786334
0.139293
0.785588
0.786334
0.786334
0.785576
0.785648
0.210022
0.128502
0.785662
0.786334
0.210022
0.128501
0.128501
0.128443
0.128520
0.128448
0.128520
0.128544
0.128544
0.275116
0.128520
0.128538
0.128538
0.785628
0.128566
0.128443
0.139299
0.128980
0.128502
0.785633
0.139293
0.128980
0.128443
0.128574
0.139314
0.128437
0.139293
0.785609
0.151758
0.139337
0.139293
0.785576
0.136636
0.128466
0.128469
0.275120
0.128381
0.139289
0.786334
0.785540
0.413381
0.785672
0.478679
0.785625
0.786058
0.136636
0.139270
0.128544
0.128544
0.139319
0.139337
0.785572
0.785695
0.128505
0.128574
0.139280
0.275172
0.275120
0.139319
0.786334
0.134853
0.128520
0.139301
0.139300
0.128475
0.128574
0.786334
0.128538
0.128437
0.786334
0.795954
0.139299
0.139300
0.139292
0.139320
0.128425
0.139337
0.785626
0.128437
0.785597
0.128980
0.151758
0.139292
0.785651
0.128505
0.188293
0.128456
0.128501
0.139299
0.785685
0.139300
0.128381
0.128381
0.139300
0.128502
0.128574
0.785659
0.786334
0.139337
0.478679
0.139248
0.139337
0.806694
0.139252
0.785592
0.128574
0.128486
0.785659
0.128448
0.209880
0.139300
0.139299
0.139301
0.139322
0.128469
0.139300
0.275120
0.139300
0.210030
0.128475
0.275120
0.209900
0.139293
0.785569
0.128469
0.139299
0.128497
0.128520
0.128505
0.128538
0.209344
0.128574
0.785538
0.785576
0.128425
0.785591
0.130525
0.128544
0.128536
0.139280
0.128418
0.785644
0.785592
0.785588
0.128566
0.139299
0.128520
0.139292
0.786541
0.785595
0.128980
0.139319
0.806710
0.139289
0.139248
0.128437
0.785591
0.785576
0.139299
0.785606
0.139299
0.139320
0.128505
0.785104
0.128501
0.785592
0.128544
0.478679
0.128566
0.139293
0.128381
0.128425
0.128443
0.128544
0.139293
0.786334
0.139334
0.128443
0.785726
0.128574
0.128544
0.139292
0.128443
0.128980
0.785367
0.806793
0.188293
0.785573
0.128497
0.785032
0.128486
0.275120
0.209900
0.128574
0.139337
0.139337
0.785576
0.139299
0.275056
0.128469
0.139337
0.785433
0.785548
0.804462
0.128469
0.128425
0.128381
0.139292
0.785576
0.209344
0.128497
0.785420
0.139300
0.128505
0.210030
0.478679
0.792462
0.128443
0.785589
0.139252
0.128497
0.139293
0.139299
0.785576
0.151758
0.275120
0.134853
0.128502
0.128502
0.139299
0.275137
0.139350
0.139337
0.139248
0.128566
0.785561
0.209900
0.763116
0.128443
0.785648
0.785576
0.785569
0.210030
0.130525
0.128381
0.785613
0.139299
0.806694
0.128501
0.134853
0.128538
0.275120
0.128431
0.139256
0.130497
0.139337
0.128574
0.785592
0.139248
0.786334
0.139337
0.128566
0.139300
0.785581
0.128566
0.785690
0.128443
0.139293
0.139337
0.128574
0.274993
0.275120
0.128520
0.785719
0.128469
0.275120
0.785631
0.128437
0.785576
0.128520
0.128505
0.139293
0.785565
0.139299
0.128437
0.139248
0.139289
0.139298
0.139319
0.128505
0.800003
0.275120
0.128980
0.275120
0.128448
0.413381
0.139293
0.139293
0.128501
0.785605
0.128501
0.128486
0.785538
0.139293
0.128443
0.785564
0.128574
0.139334
0.785125
0.210030
0.128469
0.792947
0.128501
0.128437
0.139337
0.128520
0.785633
0.128418
0.785589
0.128443
0.806679
0.128536
0.128431
0.139252
0.139298
0.139299
0.785634
0.139293
0.128544
0.139298
0.139300
0.128475
0.128443
0.139322
0.785592
0.788827
0.139252
0.785703
0.128497
0.139350
0.139319
0.128502
0.139350
0.128502
0.128544
0.785592
0.785647
0.128502
0.128527
0.786334
0.786334
0.785758
0.128980
0.785644
0.139337
0.128536
0.139299
0.275137
0.199622
0.128469
0.800003
0.151758
0.785693
0.478679
0.128431
0.139314
0.128381
0.139319
0.128566
0.128544
0.128527
0.785678
0.138365
0.275120
0.128505
0.139293
0.188293
0.139280
0.128544
0.785667
0.128437
0.128501
0.139300
0.139337
0.139319
0.139293
0.139301
0.130497
0.806808
0.139293
0.128544
0.785565
0.128475
0.128534
0.785491
0.134853
0.128574
0.785719
0.139300
0.139293
0.128534
0.785653
0.785621
0.785683
0.128980
0.128544
0.785698
0.128502
0.275120
0.139299
0.139280
0.795954
0.128574
0.275120
0.784978
0.210030
0.139337
0.785703
0.128501
0.128527
0.128466
0.275148
0.209880
0.128469
0.139337
0.128534
0.785592
0.128566
0.139300
0.128574
0.128437
0.139337
0.785570
0.139293
0.139299
0.210015
0.274993
0.128534
0.139299
0.188293
0.128502
0.128980
0.275120
0.139300
0.785639
0.128544
0.785587
0.785589
0.209344
0.139252
0.139299
0.806845
0.128381
0.139293
0.128501
0.785576
0.128574
0.139289
0.785603
0.139293
0.785625
0.128501
0.785597
0.128544
0.275120
0.785662
0.792947
0.128501
0.786334
0.128527
0.139293
0.795954
0.128443
0.785525
0.128425
0.128443
0.128574
0.128443
0.138365
0.786334
0.128448
0.139319
0.128497
0.128502
0.128448
0.128418
0.139256
0.209880
0.793464
0.785656
0.139337
0.785635
0.209900
0.128501
0.785719
0.139293
0.128497
0.128980
0.785624
0.785588
0.128544
0.210015
0.128381
0.275120
0.139320
0.139300
0.792947
0.128574
0.128475
0.139337
0.785576
0.128448
0.130525
0.139293
0.785592
0.128574
0.139280
0.128534
0.209900
0.785636
0.128520
0.785711
0.785672
0.792246
0.128431
0.785592
0.789479
0.134853
0.275050
0.139319
0.139337
0.785685
0.128574
0.478679
0.139293
0.128980
0.128469
0.785583
0.139270
0.275049
0.785653
0.139292
0.275114
0.128497
0.128538
0.128425
0.786334
0.210022
0.785576
0.139298
0.785587
0.128443
0.128502
0.785576
0.128538
0.786334
0.786334
0.128544
0.275006
0.785603
0.139280
0.275120
0.139299
0.139299
0.128980
0.128437
0.785598
0.128980
0.128566
0.139293
0.785569
0.139300
0.139350
0.139299
0.785588
0.139350
0.209880
0.139299
0.788257
0.785582
0.128431
0.128475
0.139320
0.139314
0.128475
0.788827
0.128497
0.785628
0.128520
0.139299
0.128486
0.139301
0.128437
0.210022
0.128980
0.128980
0.139293
0.128501
0.785682
0.139293
0.785633
0.210015
0.139337
0.785621
0.785569
0.139293
0.134853
0.275120
0.139350
0.139300
0.785576
0.139280
0.785569
0.792462
0.785629
0.139337
0.275120
0.139293
0.128502
0.128520
0.209880
0.139300
0.139299
0.785232
0.128502
0.128505
0.139299
0.188293
0.275006
0.139337
0.139319
0.139337
0.785527
0.785611
0.785633
0.789479
0.139293
0.785592
0.128501
0.275120
0.139334
0.478679
0.128505
0.139293
0.128505
0.128538
0.139322
0.128381
0.785592
0.128527
0.128520
0.128418
0.785570
0.134853
0.786058
0.128980
0.785405
0.199622
0.128448
0.806756
0.785628
0.151758
0.785669
0.139337
0.785735
0.209880
0.128501
0.139293
0.275090
0.274991
0.128448
0.128443
0.128980
0.138365
0.785576
0.128505
0.128544
0.128980
0.785592
0.139270
0.139301
0.128505
0.128443
0.139300
0.128505
0.139301
0.785592
0.785063
0.139337
0.785576
0.139301
0.692550
0.139337
0.128502
0.139322
0.786334
0.139337
0.128505
0.128469
0.785592
0.128486
0.139299
0.785576
0.139337
0.128502
0.139280
0.139300
0.139248
0.139293
0.128520
0.139320
0.139280
0.134853
0.139300
0.139298
0.128520
0.785576
0.139299
0.139280
0.128544
0.275120
0.128538
0.128437
0.128443
0.785063
0.139280
0.785655
0.139319
0.786334
0.628246
0.128448
0.785603
0.786334
0.785659
0.128505
0.209344
0.785672
0.139334
0.128574
0.139293
0.139319
0.128431
0.128469
0.785641
0.128425
0.785591
0.128443
0.139314
0.128574
0.786334
0.128381
0.785661
0.805805
0.128381
0.785662
0.615026
0.134853
0.128980
0.785603
0.128502
0.128527
0.805805
0.128502
0.788827
0.785651
0.785723
0.138365
0.785592
0.786334
0.785590
0.128443
0.275120
0.785625
0.138365
0.139319
0.128566
0.413381
0.139337
0.139292
0.128505
0.806710
0.199622
0.785125
0.139280
0.139293
0.128475
0.785628
0.128418
0.785576
0.785612
0.785656
0.128425
0.139337
0.139337
0.128437
0.139350
0.128544
0.785576
0.275120
0.139334
0.128501
0.128448
0.785656
0.139256
0.128381
0.128469
0.139252
0.128574
0.128520
0.139280
0.139299
0.128544
0.785682
0.151758
0.785605
0.139300
0.128456
0.134853
0.139300
0.806783
0.139299
0.139319
0.128381
0.128475
0.128443
0.136636
0.128980
0.785527
0.785125
0.763116
0.792914
0.139293
0.139252
0.139337
0.128502
0.735331
0.275078
0.128443
0.806752
0.139319
0.128475
0.128418
0.128534
0.128520
0.785592
0.785644
0.792947
0.785656
0.139300
0.128505
0.128469
0.128574
0.128501
0.785527
0.128497
0.128505
0.139248
0.139280
0.128566
0.785599
0.785626
0.128501
0.128538
0.786334
0.786334
0.199622
0.128437
0.128544
0.774828
0.139289
0.139248
0.128527
0.128501
0.139293
0.128469
0.134853
0.806808
0.128443
0.789479
0.785613
0.128486
0.275047
0.139300
0.128574
0.139319
0.785698
0.128381
0.128520
0.139256
0.128544
0.139319
0.785576
0.785576
0.128381
0.128466
0.785053
0.128502
0.139301
0.128497
0.209344
0.785605
0.139337
0.785524
0.139293
0.139301
0.139280
0.128501
0.128443
0.788827
0.139300
0.128566
0.139298
0.785576
0.785646
0.275120
0.785592
0.128443
0.139350
0.139319
0.785653
0.128538
0.785576
0.785685
0.128502
0.139337
0.128425
0.128497
0.785625
0.128538
0.786334
0.785285
0.139300
0.786334
0.806679
0.786334
0.785569
0.128980
0.128980
0.139280
0.139293
0.139319
0.806686
0.128502
0.785564
0.785648
0.786334
0.785656
0.128443
0.128566
0.139334
0.785576
0.139299
0.128536
0.139319
0.128536
0.250713
0.128544
0.806686
0.128520
0.128475
0.785628
0.128431
0.128497
0.128574
0.128381
0.785564
0.139300
0.128502
0.128425
0.139300
0.785685
0.128502
0.275120
0.138365
0.785576
0.139292
0.128527
0.275114
0.128502
0.128502
0.792462
0.785641
0.128443
0.128502
0.128443
0.210030
0.128501
0.786334
0.128505
0.785695
0.785661
0.786334
0.209900
0.128469
0.806782
0.128574
0.139256
0.139337
0.128538
0.785576
0.128486
0.136636
0.128980
0.139299
0.785729
0.785595
0.785651
0.209900
0.139280
0.785682
0.128505
0.786334
0.130525
0.128486
0.785527
0.139280
0.139301
0.128520
0.128501
0.792947
0.786334
0.139337
0.785633
0.136636
0.786334
0.188293
0.151758
0.785726
0.128381
0.786334
0.128501
0.139300
0.128486
0.250713
0.785570
0.772148
0.139320
0.128574
0.128381
0.128501
0.128443
0.128538
0.785063
0.139252
0.128466
0.139301
0.785628
0.210022
0.128443
0.785656
0.128431
0.139270
0.128448
0.785632
0.139280
0.478679
0.128544
0.785571
0.128502
0.806778
0.128980
0.785656
0.128469
0.139337
0.139270
0.130497
0.275120
0.789479
0.139293
0.785561
0.785633
0.210015
0.785579
0.139292
0.790579
0.139299
0.128469
0.275120
0.804462
0.785659
0.785165
0.785603
0.785576
0.785690
0.478679
0.139293
0.139293
0.275114
0.785606
0.139292
0.785696
0.139337
0.128381
0.139337
0.128497
0.275120
0.785603
0.785636
0.786334
0.785726
0.139293
0.785588
0.139337
0.128381
0.128505
0.615026
0.209880
0.139280
0.128566
0.128538
0.139337
0.128418
0.128418
0.786341
0.785576
0.139334
0.806793
0.209880
0.785587
0.128502
0.785634
0.785608
0.128437
0.128448
0.785673
0.128443
0.785104
0.139300
0.785527
0.139248
0.785592
0.139319
0.786334
0.128443
0.139300
0.785141
0.275120
0.139293
0.128466
0.785576
0.785661
0.128520
0.128443
0.128574
0.188293
0.785538
0.785682
0.128469
0.128501
0.275120
0.128520
0.128381
0.128486
0.139319
0.128466
0.128437
0.785582
0.139301
0.128443
0.785601
0.785719
0.128980
0.128437
0.275120
0.139299
0.275120
0.785678
0.128469
0.139270
0.139299
0.128486
0.139293
0.785682
0.128448
0.128538
0.128544
0.139293
0.128448
0.785043
0.139337
0.210015
0.128538
0.139293
0.139299
0.275172
0.785682
0.139319
0.615026
0.128980
0.128466
0.128566
0.800003
0.139319
0.786334
0.785529
0.139337
0.130497
0.139299
0.188293
0.785182
0.128566
0.786334
0.785592
0.139293
0.128544
0.478679
0.274990
0.128486
0.128574
0.128544
0.128566
0.139248
0.139292
0.128534
0.128381
0.128520
0.128544
0.275120
0.128501
0.139300
0.128443
0.128505
0.128443
0.275120
0.788257
0.785053
0.139293
0.128544
0.139293
0.128456
0.785617
0.139299
0.785633
0.138365
0.785576
0.478679
0.138365
0.209900
0.785703
0.139292
0.785582
0.785703
0.128475
0.275120
0.785681
0.139334
0.139300
0.785632
0.128534
0.128381
0.128431
0.128566
0.785382
0.139280
0.275120
0.785576
0.128469
0.139293
0.128437
0.785672
0.785540
0.128437
0.785576
0.128574
0.128980
0.139299
0.139300
0.128538
0.139293
0.785673
0.128443
0.128574
0.128574
0.785576
0.128486
0.128980
0.785696
0.785592
0.275120
0.128466
0.128466
0.139280
0.139248
0.785621
0.785576
0.128502
0.785536
0.128475
0.786334
0.139314
0.128437
0.128980
0.275120
0.139337
0.128505
0.139299
0.785569
0.128544
0.785646
0.139314
0.785576
0.785726
0.151758
0.139314
0.139293
0.210015
0.439096
0.128437
0.785758
0.188293
0.128469
0.785576
0.128381
0.128475
0.128980
0.128381
0.275144
0.785625
0.275120
0.139293
0.139293
0.139299
0.363259
0.128469
0.139299
0.139248
0.139322
0.139252
0.139334
0.139299
0.275113
0.139293
0.139300
0.785104
0.785576
0.128544
0.785647
0.199622
0.139252
0.128538
0.209344
0.786334
0.785627
0.139292
0.139337
0.275120
0.754076
0.128443
0.128456
0.128443
0.128538
0.128381
0.785592
0.139293
0.275114
0.275116
0.128505
0.139299
0.785576
0.128502
0.763116
0.785662
0.785422
0.786334
0.128980
0.128980
0.275120
0.785576
0.139314
0.788827
0.139293
0.128486
0.785672
0.210015
0.128520
0.128418
0.128505
0.786541
0.139337
0.134853
0.128466
0.274993
0.128437
0.128520
0.128980
0.785640
0.786334
0.128448
0.785592
0.128538
0.806717
0.275120
0.128544
0.139293
0.139334
0.210015
0.785576
0.139293
0.128443
0.128502
0.785165
0.128466
0.785603
0.139301
0.139298
0.275120
0.785636
0.139337
0.785538
0.786341
0.785695
0.785489
0.785648
0.139300
0.128980
0.128538
0.139252
0.786334
0.139319
0.139270
0.128497
0.128544
0.128980
0.275120
0.128505
0.128980
0.128544
0.128566
0.128497
0.275120
0.139337
0.209900
0.806793
0.785030
0.139270
0.128381
0.128466
0.785405
0.785569
0.139350
0.785569
0.128497
0.785694
0.785576
0.210022
0.128443
0.785569
0.275076
0.439096
0.139337
0.128418
0.275120
0.128448
0.128980
0.139299
0.785561
0.128574
0.785561
0.128536
0.785588
0.128418
0.274985
0.138365
0.151758
0.128574
0.139299
0.151758
0.128501
0.139337
0.128443
0.209900
0.139248
0.128502
0.128520
0.128544
0.209900
0.128538
0.785576
0.128497
0.785564
0.128536
0.785608
0.128505
0.128437
0.806686
0.785674
0.128381
0.139301
0.786334
0.785548
0.139299
0.139299
0.128574
0.128544
0.785632
0.139293
0.128538
0.130525
0.136636
0.806756
0.139319
0.128431
0.785592
0.128980
0.128980
0.128505
0.615026
0.139248
0.128466
0.151758
0.128448
0.128980
0.139299
0.785367
0.785614
0.128437
0.139337
0.128443
0.128469
0.139337
0.139252
0.139301
0.128574
0.139293
0.128505
0.128469
0.785674
0.785576
0.128505
0.275120
0.786334
0.139300
0.128469
0.139298
0.128437
0.128418
0.785651
0.139299
0.785592
0.786334
0.128980
0.139337
0.128469
0.134853
0.785592
0.139270
0.128448
0.785570
0.139300
0.139293
0.785090
0.128527
0.785649
0.128443
0.128425
0.785644
0.786334
0.785577
0.128544
0.139300
0.128469
0.139337
0.128505
0.209880
0.806752
0.785699
0.209344
0.800003
0.806756
0.128574
0.139334
0.785626
0.785613
0.785678
0.139252
0.128980
0.128501
0.786334
0.139299
0.139319
0.785104
0.786334
0.130525
0.139337
0.275120
0.139289
0.785576
0.139301
0.139337
0.785726
0.139299
0.128505
0.785587
0.128475
0.785549
0.128448
0.128497
0.128443
0.128980
0.128443
0.139299
0.128980
0.128469
0.275120
0.785597
0.128544
0.139337
0.763116
0.139293
0.139337
0.128544
0.785625
0.128520
0.785611
0.139301
0.128566
0.188293
0.210022
0.128502
0.128502
0.785146
0.128566
0.128437
0.130525
0.139299
0.785032
0.138365
0.128505
0.785691
0.128520
0.785681
0.139299
0.128437
0.717926
0.785588
0.786334
0.275120
0.275120
0.139293
0.785707
0.789479
0.785628
0.785678
0.785576
0.785609
0.785656
0.785576
0.785606
0.128544
0.139299
0.128505
0.139319
0.785216
0.128437
0.139300
0.209900
0.785588
0.785576
0.139280
0.128520
0.139299
0.128443
0.785576
0.128418
0.275120
0.806717
0.128448
0.128425
0.139280
0.128544
0.134853
0.128381
0.806694
0.806782
0.128544
0.785651
0.128381
0.128505
0.139293
0.128505
0.128574
0.128448
0.128538
0.139319
0.136636
0.128381
0.199622
0.789479
0.128456
0.128501
0.275120
0.139293
0.785622
0.139280
0.785659
0.128501
0.128448
0.128505
0.128456
0.763116
0.128574
0.139300
0.128469
0.128505
0.210015
0.209344
0.785182
0.128418
0.785628
0.128544
0.139300
0.785633
0.128538
0.785628
0.785659
0.128448
0.139334
0.128502
0.128566
0.275050
0.139248
0.785633
0.785628
0.128497
0.209967
0.275120
0.128437
0.130497
0.139337
0.128443
0.128443
0.128501
0.785565
0.139337
0.128520
0.139256
0.128418
0.128501
0.128980
0.139293
0.139334
0.139293
0.139300
0.128469
0.763116
0.128443
0.128520
0.786334
0.128505
0.128544
0.786334
0.139300
0.786530
0.128381
0.134853
0.785659
0.128431
0.139300
0.128980
0.785576
0.128566
0.785661
0.128501
0.787131
0.139280
0.139292
0.128443
0.128501
0.139301
0.128980
0.139248
0.128469
0.128437
0.139299
0.139293
0.128418
0.128574
0.785030
0.786334
0.139292
0.128443
0.806845
0.128505
0.139300
0.274990
0.785592
0.786334
0.139280
0.128574
0.128502
0.785576
0.785592
0.128574
0.139248
0.139337
0.128437
0.785648
0.785032
0.785607
0.209344
0.139337
0.128980
0.785703
0.785576
0.128566
0.785104
0.763116
0.128431
0.128469
0.139337
0.128544
0.139300
0.128443
0.139337
0.785378
0.139293
0.128544
0.806756
0.478679
0.128486
0.128538
0.139300
0.785576
0.785677
0.139293
0.128448
0.139293
0.275114
0.139256
0.785647
0.128466
0.275120
0.139280
0.139334
0.139299
0.275049
0.139292
0.778314
0.128502
0.785588
0.785612
0.128505
0.139293
0.139337
0.786334
0.128469
0.128501
0.785682
0.785690
0.275120
0.275120
0.128566
0.128466
0.275120
0.128418
0.139270
0.128980
0.128431
0.128544
0.139293
0.139293
0.785682
0.139314
0.139301
0.785662
0.478679
0.128538
0.128425
0.717926
0.139256
0.128505
0.785678
0.128505
0.128475
0.139293
0.128501
0.139319
0.134853
0.128566
0.139300
0.785624
0.128469
0.139293
0.128448
0.128520
0.128443
0.774828
0.139280
0.785647
0.128538
0.128497
0.139293
0.785625
0.128381
0.789033
0.139314
0.128381
0.128527
0.128475
0.128443
0.786334
0.786341
0.139319
0.128448
0.139350
0.785561
0.130497
0.785672
0.139299
0.128456
0.786334
0.128437
0.139301
0.128502
0.275120
0.785607
0.139337
0.275120
0.128980
0.128456
0.209900
0.785576
0.139280
0.139300
0.128466
0.139293
0.128980
0.128544
0.786334
0.139322
0.139293
0.478679
0.785576
0.130497
0.128980
0.139298
0.128544
0.128501
0.139280
0.139292
0.275120
0.134853
0.136636
0.128538
0.128527
0.128527
0.805710
0.130525
0.209880
0.139299
0.786334
0.128566
0.615026
0.128527
0.275119
0.785758
0.785129
0.139299
0.785472
0.785633
0.139299
0.128431
0.128381
0.785726
0.128544
0.139319
0.786334
0.805710
0.785645
0.139298
0.128544
0.413381
0.210022
0.128381
0.785656
0.139299
0.128466
0.785758
0.275120
0.128381
0.785577
0.134853
0.128538
0.128544
0.128431
0.128538
0.128469
0.128437
0.139299
0.785394
0.128381
0.139299
0.139301
0.785232
0.785621
0.139280
0.128469
0.139298
0.139350
0.128566
0.128980
0.139300
0.785576
0.139301
0.139334
0.128574
0.139314
0.139300
0.785659
0.128544
0.139293
0.139293
0.785298
0.139248
0.130525
0.139293
0.785628
0.786334
0.209967
0.139300
0.785609
0.139289
0.785693
0.139252
0.128475
0.785628
0.785681
0.210030
0.274991
0.209900
0.786334
0.785576
0.139301
0.128980
0.128418
0.128544
0.785708
0.128443
0.139299
0.128980
0.209967
0.210015
0.128381
0.785601
0.128475
0.128505
0.139299
0.139289
0.139293
0.139299
0.128520
0.134853
0.188293
0.478679
0.139292
0.806752
0.128437
0.785580
0.785626
0.139293
0.763116
0.128574
0.785624
0.785609
0.128418
0.139314
0.139299
0.139299
0.139299
0.128486
0.139299
0.128456
0.139292
0.209880
0.806784
0.785349
0.772148
0.139299
0.128469
0.139337
0.139337
0.139337
0.139270
0.785608
0.128980
0.785576
0.139314
0.199622
0.209967
0.786058
0.139280
0.139293
0.785576
0.128443
0.139320
0.128443
0.128536
0.128980
0.128443
0.128466
0.139293
0.134853
0.138365
0.139248
0.128527
0.793464
0.139337
0.128448
0.785558
0.785609
0.209344
0.128505
0.275120
0.785699
0.785672
0.128505
0.128475
0.128502
0.128544
0.128475
0.139300
0.785672
0.139322
0.209967
0.128466
0.128544
0.128469
0.139300
0.128497
0.785699
0.139334
0.785647
0.785729
0.128443
0.785609
0.785053
0.128437
0.785677
0.128475
0.786334
0.128431
0.786341
0.139300
0.139270
0.128502
0.139300
0.128497
0.128538
0.128469
0.128501
0.275120
0.785715
0.128544
0.128538
0.139300
0.785696
0.790579
0.785576
0.128980
0.785053
0.128469
0.275163
0.785157
0.128469
0.139293
0.786334
0.134853
0.151758
0.785363
0.785694
0.128431
0.786341
0.128505
0.128381
0.128437
0.787421
0.139301
0.128980
0.275120
0.128574
0.128486
0.139337
0.785166
0.209967
0.128448
0.786334
0.128431
0.139298
0.785592
0.128475
0.786334
0.128448
0.139319
0.785580
0.134853
0.785592
0.128505
0.139322
0.139292
0.128566
0.128502
0.128475
0.128502
0.785588
0.128418
0.786334
0.139256
0.139337
0.806766
0.128469
0.139270
0.130497
0.209880
0.275120
0.128502
0.134853
0.785695
0.151758
0.785570
0.275120
0.785394
0.139293
0.139319
0.786334
0.788257
0.785561
0.785146
0.785656
0.128381
0.128544
0.804462
0.785576
0.806782
0.785632
0.785625
0.128418
0.786058
0.772148
0.139322
0.139299
0.785647
0.128544
0.128443
0.139300
0.134853
0.128443
0.210030
0.139293
0.785685
0.785719
0.139299
0.128502
0.139319
0.128443
0.128501
0.785624
0.128980
0.128520
0.134853
0.128544
0.275120
0.806778
0.785677
0.785646
0.785589
0.806747
0.188293
0.139299
0.785592
0.139293
0.128544
0.139270
0.786334
0.128381
0.139280
0.128566
0.275120
0.785672
0.128527
0.128980
0.806784
0.139299
0.139337
0.790017
0.128475
0.139337
0.139299
0.785703
0.250713
0.785527
0.128502
0.275120
0.128448
0.134853
0.785527
0.139314
0.139337
0.128520
0.134853
0.139293
0.785598
0.785656
0.128527
0.128443
0.139301
0.128544
0.139298
0.785672
0.128566
0.199622
0.275120
0.139300
0.128544
0.128505
0.139293
0.275120
0.128980
0.785129
0.275012
0.128980
0.139293
0.275035
0.275120
0.478679
0.130497
0.128980
0.128538
0.785672
0.785592
0.785564
0.128544
0.128505
0.128425
0.139301
0.128980
0.139314
0.139300
0.139337
0.792947
0.139337
0.139299
0.128425
0.128502
0.128486
0.785592
0.785104
0.275120
0.188293
0.786334
0.139319
0.128574
0.128469
0.785232
0.128566
0.128425
0.128443
0.275120
0.139270
0.785683
0.785576
0.134853
0.789479
0.139293
0.139293
0.128443
0.128381
0.785604
0.139293
0.128443
0.128443
0.785592
0.128544
0.128574
0.139252
0.139293
0.786334
0.128502
0.792947
0.275172
0.139300
0.806808
0.763116
0.692550
0.128418
0.128566
0.785567
0.275120
0.139319
0.785592
0.139314
0.128520
0.130497
0.786341
0.128501
0.128502
0.128566
0.139293
0.139337
0.139299
0.274975
0.139299
0.128502
0.786334
0.139299
0.128381
0.128431
0.139337
0.128456
0.785699
0.128381
0.128497
0.128566
0.128469
0.785104
0.275120
0.785604
0.139299
0.139337
0.128527
0.139300
0.785592
0.275120
0.139299
0.128505
0.128538
0.128501
0.785695
0.139301
0.785576
0.130497
0.785232
0.139293
0.128505
0.785682
0.139319
0.128469
0.785625
0.139252
0.785648
0.139292
0.128502
0.139319
0.139280
0.139280
0.139299
0.588792
0.128469
0.128443
0.275120
0.136636
0.128497
0.786334
0.773334
0.785611
0.795954
0.139319
0.139300
0.785570
0.785063
0.128502
0.128980
0.128469
0.785611
0.785592
0.139334
0.128538
0.139337
0.785708
0.806752
0.136636
0.615026
0.128566
0.128431
0.785651
0.139301
0.128418
0.785628
0.786334
0.139350
0.151758
0.275120
0.128520
0.786334
0.785682
0.785573
0.139293
0.785614
0.785685
0.139280
0.188293
0.785641
0.785146
0.128574
0.139293
0.128486
0.139300
0.139337
0.128381
0.139334
0.139280
0.128469
0.128448
0.128381
0.128501
0.128431
0.785574
0.786334
0.785703
0.128469
0.139300
0.785592
0.250713
0.785582
0.763116
0.139300
0.139319
0.128520
0.139292
0.128520
0.275120
0.128486
0.478679
0.785672
0.785694
0.785592
0.786341
0.785720
0.139300
0.274990
0.128501
0.139300
0.128574
0.128980
0.785104
0.139300
0.128980
0.128381
0.128520
0.128527
0.785592
0.128469
0.128486
0.139299
0.128566
0.128566
0.785576
0.785576
0.478679
0.128502
0.785656
0.139293
0.128381
0.786334
0.139319
0.806756
0.128466
0.128443
0.139337
0.275120
0.139293
0.128505
0.275120
0.786530
0.615026
0.128520
0.128448
0.128443
0.785628
0.139322
0.139293
0.128980
0.128381
0.628246
0.786334
0.128520
0.128466
0.128538
0.128574
0.785576
0.785625
0.139320
0.785632
0.785627
0.785857
0.785644
0.275012
0.210030
0.139300
0.128544
0.785581
0.139289
0.128505
0.128381
0.139334
0.785656
0.128544
0.785639
0.785030
0.128443
0.139270
0.128486
0.786334
0.139314
0.139350
0.139314
0.786334
0.785625
0.786334
0.786334
0.128418
0.199622
0.128418
0.199622
0.139298
0.128381
0.188293
0.275006
0.128574
0.139293
0.128466
0.151758
0.128574
0.128980
0.785633
0.128381
0.785382
0.128980
0.128469
0.785723
0.792914
0.128544
0.785690
0.478679
0.128469
0.785591
0.785676
0.139270
0.151758
0.139350
0.785367
0.128443
0.139299
0.139293
0.128527
0.128544
0.128469
0.128520
0.806778
0.128381
0.785647
0.785318
0.139320
0.785672
0.139300
0.128469
0.139300
0.785625
0.139293
0.785588
0.128501
0.785378
0.128443
0.128443
0.139314
0.785576
0.128486
0.275120
0.139280
0.128505
0.139322
0.210022
0.785678
0.139314
0.786334
0.785729
0.785603
0.786109
0.128574
0.139280
0.128425
0.786334
0.128443
0.128448
0.128520
0.128502
0.128381
0.128502
0.128538
0.139293
0.139301
0.139337
0.139337
0.210015
0.139293
0.793464
0.785410
0.209900
0.139319
0.128497
0.128425
0.134853
0.275153
0.139293
0.798829
0.128980
0.128475
0.139319
0.128538
0.786334
0.785682
0.785059
0.139293
0.128574
0.128381
0.128443
0.785656
0.128469
0.785692
0.139292
0.785576
0.786334
0.138365
0.128443
0.128448
0.139300
0.806686
0.785592
0.128501
0.139293
0.774828
0.785726
0.128520
0.275120
0.139334
0.128469
0.128381
0.139319
0.128497
0.128574
0.128566
0.128544
0.785648
0.785588
0.275120
0.128980
0.275120
0.139293
0.139300
0.139300
0.128431
0.139299
0.139252
0.128443
0.139314
0.785726
0.785592
0.188293
0.785063
0.139314
0.128469
0.128502
0.128497
0.188293
0.139337
0.139319
0.128448
0.786334
0.128980
0.786334
0.139319
0.128497
0.128443
0.139300
0.478679
0.139292
0.128505
0.139301
0.128566
0.785157
0.139293
0.139300
0.139322
0.139293
0.785726
0.128544
0.275120
0.128544
0.128980
0.128469
0.785568
0.128448
0.785674
0.806793
0.128544
0.785629
0.128520
0.209967
0.128456
0.785612
0.139280
0.274978
0.128520
0.128980
0.785677
0.139337
0.785576
0.139319
0.128456
0.785624
0.139280
0.128505
0.275120
0.210030
0.134853
0.274991
0.209344
0.785053
0.128536
0.785603
0.128456
0.275003
0.139293
0.139299
0.139293
0.128574
0.209344
0.139300
0.785651
0.785634
0.785573
0.139337
0.128980
0.128980
0.785726
0.785576
0.134853
0.128502
0.128980
0.785582
0.615026
0.136636
0.139334
0.128980
0.785628
0.128486
0.128431
0.774828
0.785305
0.210015
0.128469
0.275120
0.209967
0.128497
0.139300
0.139299
0.128437
0.128497
0.128505
0.763116
0.785625
0.139337
0.785629
0.128443
0.139319
0.128544
0.785646
0.139293
0.128443
0.139337
0.128448
0.128502
0.151758
0.128544
0.128574
0.785583
0.128520
0.139319
0.139299
0.128544
0.250713
0.128466
0.139300
0.151758
0.785333
0.128475
0.785690
0.785576
0.139300
0.128443
0.786334
0.275120
0.139299
0.139337
0.806694
0.139320
0.139337
0.128425
0.785527
0.139280
0.785576
0.139314
0.139298
0.275050
0.128443
0.275120
0.209967
0.789479
0.128497
0.128980
0.785679
0.128520
0.785609
0.139256
0.785694
0.128527
0.478679
0.785592
0.128505
0.128980
0.139280
0.128486
0.785576
0.138365
0.128418
0.128443
0.139300
0.128520
0.786334
0.139300
0.139299
0.151758
0.130525
0.785576
0.128980
0.139334
0.785697
0.128501
0.128501
0.139299
0.785672
0.128469
0.139270
0.128418
0.128469
0.128505
0.139301
0.785695
0.139293
0.806784
0.128431
0.785633
0.785677
0.785285
0.209900
0.785624
0.128448
0.785694
0.128448
0.139300
0.199622
0.128574
0.210030
0.136636
0.128534
0.128443
0.786334
0.128437
0.786334
0.128501
0.139293
0.785690
0.128505
0.128538
0.128443
0.139293
0.139337
0.785662
0.139293
0.128381
0.785678
0.785682
0.786334
0.209344
0.139289
0.134853
0.785726
0.139298
0.786334
0.128431
0.151758
0.128980
0.785373
0.134853
0.786058
0.139252
0.785655
0.139280
0.785682
0.128443
0.128527
0.128381
0.128443
0.139293
0.786334
0.786334
0.139293
0.128443
0.128475
0.786334
0.785693
0.139301
0.209967
0.134853
0.785639
0.785707
0.785629
0.785661
0.692550
0.786334
0.785719
0.139270
0.785587
0.275120
0.785656
0.128469
0.128443
0.275054
0.128497
0.128520
0.785587
0.275120
0.128544
0.128980
0.128448
0.786334
0.804462
0.139337
0.138365
0.785024
0.139300
0.128437
0.128437
0.128980
0.128505
0.128497
0.128501
0.128527
0.785625
0.128466
0.785603
0.785622
0.802785
0.786334
0.128566
0.785599
0.789479
0.439096
0.790579
0.128381
0.128418
0.130497
0.275129
0.128497
0.139292
0.139248
0.128505
0.128475
0.785726
0.139248
0.790579
0.785677
0.128469
0.128980
0.139280
0.128486
0.139293
0.139337
0.128566
0.210022
0.128536
0.785063
0.128443
0.786334
0.139289
0.785626
0.128520
0.128574
0.275113
0.785611
0.785576
0.275120
0.210030
0.128425
0.275172
0.785588
0.128431
0.128566
0.785667
0.128497
0.785667
0.128443
0.478679
0.275120
0.128443
0.128497
0.785579
0.128501
0.134853
0.128497
0.786334
0.806756
0.139280
0.275120
0.786334
0.128538
0.785491
0.128980
0.128437
0.139322
0.139337
0.128538
0.785726
0.785719
0.798829
0.128502
0.128469
0.139319
0.139293
0.128448
0.785857
0.139293
0.785580
0.785417
0.209900
0.785576
0.785582
0.275120
0.128475
0.128469
0.128381
0.411981
0.128544
0.128505
0.128980
0.139337
0.139299
0.139314
0.785592
0.275120
0.134853
0.128502
0.275120
0.785633
0.151758
0.785568
0.139252
0.785576
0.692550
0.785590
0.785648
0.128443
0.128475
0.785696
0.128544
0.785576
0.139314
0.128443
0.128574
0.139334
0.139337
0.283247
0.275012
0.790579
0.210022
0.785588
0.128466
0.128980
0.785564
0.210030
0.139299
0.128980
0.806778
0.139300
0.785682
0.139293
0.139280
0.210015
0.128469
0.139301
0.786334
0.139299
0.128544
0.128980
0.128544
0.128980
0.785570
0.128527
0.130497
0.128497
0.786334
0.128469
0.806694
0.785576
0.128425
0.786109
0.806679
0.128544
0.785673
0.139293
0.139320
0.785609
0.785576
0.139337
0.786334
0.128501
0.790579
0.128502
0.128502
0.128566
0.785656
0.785540
0.128574
0.806756
0.785576
0.785647
0.128566
0.785587
0.128381
0.786334
0.128502
0.786058
0.139293
0.139337
0.128443
0.128502
0.792246
0.128502
0.139299
0.210030
0.139319
0.139334
0.128381
0.785573
0.136636
0.786334
0.139337
0.785591
0.786334
0.128501
0.790579
0.139292
0.210015
0.785653
0.128437
0.139298
0.139293
0.128501
0.139334
0.785662
0.128418
0.128505
0.151758
0.128544
0.128574
0.785572
0.785305
0.785719
0.793464
0.785576
0.763116
0.128502
0.139337
0.199622
0.785647
0.785493
0.128381
0.128520
0.128502
0.128443
0.128980
0.130497
0.128980
0.785624
0.785576
0.785587
0.128527
0.785647
0.128520
0.128469
0.785585
0.128505
0.786334
0.139289
0.786334
0.275120
0.128466
0.139301
0.139293
0.210030
0.139322
0.128520
0.785523
0.785681
0.130525
0.785693
0.139337
0.139337
0.763116
0.785626
0.806783
0.139256
0.139299
0.785576
0.128566
0.128437
0.128574
0.128505
0.188293
0.786334
0.785626
0.130525
0.136636
0.785661
0.128980
0.786334
0.139293
0.139314
0.788827
0.209880
0.128520
0.785598
0.209900
0.786334
0.128381
0.139337
0.209967
0.128437
0.139314
0.785614
0.139299
0.128486
0.128520
0.128448
0.785607
0.128502
0.139337
0.686494
0.786334
0.139300
0.785703
0.806784
0.139293
0.128486
0.128538
0.139337
0.785655
0.128486
0.785647
0.139300
0.128566
0.128381
0.785651
0.139319
0.785659
0.139299
0.128418
0.275120
0.128527
0.139299
0.128538
0.128448
0.785672
0.128574
0.785568
0.128381
0.786334
0.209967
0.128505
0.275120
0.128501
0.139337
0.128566
0.785565
0.275120
0.128381
0.786334
0.275120
0.785605
0.128520
0.275120
0.785637
0.128502
0.128497
0.785633
0.785605
0.786334
0.139322
0.128466
0.139322
0.209880
0.128566
0.139289
0.139300
0.128443
0.128574
0.139300
0.209967
0.139299
0.785589
0.151758
0.785726
0.128437
0.128501
0.209967
0.128520
0.128980
0.139293
0.128381
0.139292
0.275120
0.139298
0.785758
0.785592
0.128475
0.139314
0.128534
0.785674
0.785703
0.275074
0.134853
0.139299
0.128527
0.785694
0.139293
0.275120
0.139292
0.785564
0.785621
0.139300
0.785682
0.785587
0.210030
0.785536
0.785679
0.139337
0.128574
0.199622
0.786334
0.139334
0.786334
0.721131
0.785677
0.128527
0.615026
0.128980
0.785270
0.785433
0.785647
0.785673
0.139280
0.275120
0.785761
0.785624
0.139319
0.128469
0.139337
0.806783
0.128501
0.139252
0.785628
0.785165
0.785659
0.128443
0.139350
0.786334
0.275120
0.806793
0.139256
0.139270
0.128501
0.785659
0.128501
0.128469
0.209880
0.275120
0.209900
0.128502
0.128466
0.785373
0.139292
0.139337
0.274990
0.139319
0.785059
0.792246
0.139300
0.128497
0.210015
0.128448
0.139300
0.151758
0.785529
0.128566
0.275145
0.785644
0.128536
0.128536
0.785382
0.128431
0.128437
0.785240
0.128566
0.139299
0.128574
0.806756
0.128443
0.128501
0.786334
0.139248
0.139337
0.139300
0.139350
0.785672
0.139300
0.128418
0.139293
0.139270
0.478679
0.151758
0.763116
0.785591
0.139256
0.789033
0.139293
0.139292
0.128381
0.785627
0.275120
0.786334
0.139350
0.785698
0.128456
0.128544
0.275120
0.785601
0.785595
0.151758
0.139350
0.134853
0.786334
0.128448
0.275003
0.128574
0.785529
0.785240
0.136636
0.128437
0.139319
0.785592
0.139299
0.128502
0.139314
0.785554
0.128431
0.785651
0.785703
0.136636
0.128505
0.785685
0.785631
0.785576
0.128566
0.139280
0.139280
0.128443
0.785576
0.128520
0.128534
0.139280
0.139252
0.139299
0.806808
0.139289
0.128544
0.785576
0.128536
0.275120
0.188293
0.785654
0.128448
0.138365
0.139289
0.785614
0.139298
0.478679
0.128381
0.188293
0.128538
0.785672
0.139301
0.139337
0.128980
0.785576
0.785613
0.785695
0.139299
0.785647
0.785629
0.139299
0.275120
0.139292
0.128566
0.128425
0.139299
0.139299
0.139293
0.785606
0.786334
0.786334
0.785656
0.785707
0.786334
0.128505
0.139280
0.128475
0.128538
0.785573
0.128466
0.128505
0.128980
0.139292
0.798829
0.139334
0.128505
0.128448
0.785063
0.275120
0.777783
0.128502
0.128520
0.139334
0.806733
0.363259
0.139337
0.210015
0.786334
0.785053
0.128475
0.785656
0.128980
0.128381
0.128381
0.128574
0.128566
0.139280
0.785656
0.139256
0.128497
0.785726
0.785577
0.785758
0.275120
0.139337
0.139320
0.615026
0.785597
0.139299
0.275163
0.139299
0.785554
0.128520
0.138365
0.785165
0.209900
0.128520
0.785613
0.128505
0.139337
0.785589
0.128443
0.275120
0.139300
0.275120
0.128469
0.139320
0.785703
0.134853
0.128448
0.785640
0.128544
0.785637
0.139299
0.128443
0.139299
0.128980
0.128443
0.785576
0.128574
0.785592
0.128418
0.128544
0.128566
0.785592
0.250713
0.275148
0.209344
0.128502
0.128381
0.785628
0.128448
0.275120
0.692550
0.128497
0.128469
0.128566
0.785540
0.128566
0.139300
0.128486
0.785647
0.128544
0.128574
0.139299
0.128520
0.128443
0.785659
0.139256
0.785696
0.785644
0.128505
0.785569
0.128574
0.785646
0.786334
0.139319
0.785625
0.128443
0.785651
0.785592
0.188293
0.139299
0.139299
0.128437
0.128443
0.128980
0.806694
0.139299
0.250713
0.139292
0.785580
0.763116
0.139293
0.128443
0.139293
0.128443
0.128502
0.139301
0.615026
0.128502
0.128520
0.128544
0.128381
0.128381
0.806783
0.128469
0.128448
0.128574
0.128456
0.128448
0.209880
0.785651
0.792462
0.785669
0.128527
0.128469
0.128534
0.128381
0.128497
0.209344
0.128497
0.134853
0.128544
0.139334
0.785603
0.128486
0.134853
0.151758
0.128980
0.128544
0.139289
0.128505
0.785614
0.785647
0.478679
0.134853
0.785857
0.785632
0.128448
0.139256
0.139293
0.785672
0.785576
0.785104
0.128381
0.139289
0.128431
0.139300
0.275409
0.128501
0.128538
0.139337
0.786334
0.282599
0.128544
0.139299
0.128381
0.128469
0.139293
0.806766
0.806752
0.139334
0.139298
0.128538
0.785588
0.139299
0.130497
0.139299
0.128497
0.128475
0.275120
0.139301
0.128505
0.128381
0.128475
0.139289
0.785527
0.792246
0.128443
0.789479
0.128502
0.128448
0.139300
0.128502
0.128437
0.786334
0.139248
0.139280
0.139299
0.128536
0.136636
0.139300
0.275003
0.139337
0.209344
0.128544
0.785232
0.128466
0.128980
0.128381
0.763116
0.128443
0.785726
0.128502
0.785576
0.139293
0.785709
0.785656
0.128486
0.128437
0.128505
0.785705
0.275120
0.134853
0.785695
0.128980
0.785573
0.128502
0.806686
0.789033
0.128502
0.275056
0.128443
0.139300
0.151758
0.210022
0.128469
0.128574
0.139293
0.785625
0.785588
0.785225
0.785632
0.139280
0.139334
0.128502
0.785576
0.139293
0.128437
0.139293
0.139292
0.128443
0.128497
0.128544
0.128381
0.785607
0.139334
0.128443
0.128538
0.785693
0.785576
0.139252
0.128501
0.128566
0.128431
0.785225
0.478679
0.139322
0.785626
0.209880
0.136636
0.128381
0.209344
0.128538
0.128544
0.785576
0.139314
0.785577
0.275012
0.785631
0.139299
0.199622
0.785576
0.128443
0.139299
0.128497
0.785633
0.128443
0.128574
0.128502
0.128486
0.785644
0.128469
0.128505
0.139293
0.785631
0.128980
0.275409
0.128448
0.785367
0.139350
0.128448
0.128469
0.128502
0.275047
0.128566
0.128443
0.785646
0.134853
0.478679
0.128574
0.188293
0.128544
0.139320
0.139299
0.785647
0.139292
0.128527
0.785599
0.785656
0.128443
0.128443
0.128469
0.128469
0.139299
0.210015
0.139299
0.275120
0.785576
0.128574
0.275069
0.275120
0.792462
0.199622
0.210022
0.128469
0.210015
0.139248
0.139300
0.139337
0.128980
0.128502
0.139337
0.128475
0.199622
0.128443
0.128980
0.786334
0.128486
0.786334
0.139293
0.138365
0.275120
0.128574
0.139319
0.786334
0.139252
0.209344
0.785672
0.128502
0.785672
0.128544
0.128502
0.128466
0.139319
0.785575
0.275120
0.128469
0.209900
0.785063
0.275120
0.128536
0.805882
0.786334
0.785649
0.806679
0.128381
0.128544
0.139319
0.139280
0.139337
0.128381
0.806752
0.785698
0.275120
0.785678
0.128466
0.139293
0.128443
0.139292
0.763116
0.275120
0.785576
0.785659
0.128574
0.128497
0.128486
0.785693
0.786334
0.128497
0.785614
0.209900
0.128538
0.139300
0.785758
0.792246
0.785576
0.128544
0.786334
0.786334
0.785672
0.128469
0.128527
0.128538
0.806733
0.139248
0.139256
0.785656
0.134853
0.139293
0.785672
0.785592
0.785592
0.209880
0.139337
0.128466
0.139256
0.128418
0.128437
0.139350
0.128544
0.128980
0.128469
0.139337
0.785672
0.785529
0.795954
0.785703
0.128505
0.785672
0.806717
0.785693
0.785595
0.128544
0.785527
0.134853
0.128431
0.139301
0.250713
0.128538
0.128501
0.785644
0.128486
0.139300
0.792462
0.210030
0.786334
0.128574
0.785646
0.785576
0.128469
0.139337
0.785708
0.128497
0.188293
0.136636
0.128574
0.785603
0.785422
0.128505
0.139337
0.128980
0.128418
0.128980
0.785674
0.785648
0.785565
0.275146
0.785690
0.784978
0.139299
0.139280
0.210015
0.785681
0.785576
0.128443
0.128501
0.209967
0.139289
0.786334
0.139319
0.139300
0.128502
0.139337
0.785562
0.785651
0.128574
0.275120
0.134853
0.785669
0.785652
0.785125
0.128501
0.786334
0.275120
0.275120
0.721131
0.139299
0.785633
0.274991
0.772148
0.785165
0.128527
0.139320
0.806729
0.128544
0.785569
0.786334
0.139319
0.128534
0.134853
0.785726
0.275120
0.139299
0.128443
0.785576
0.128469
0.128502
0.128418
0.785569
0.785699
0.128566
0.128527
0.139293
0.785587
0.128443
0.139350
0.128486
0.785694
0.785683
0.785576
0.139337
0.209344
0.139280
0.128486
0.250713
0.128501
0.128527
0.128501
0.275120
0.128437
0.128574
0.139337
0.692550
0.139320
0.786334
0.139300
0.785672
0.786334
0.128538
0.785569
0.139256
0.785592
0.275120
0.128486
0.128448
0.128574
0.139289
0.275120
0.128520
0.275120
0.128443
0.139299
0.139293
0.785567
0.785708
0.139314
0.139293
0.139280
0.786334
0.128544
0.128574
0.128538
0.139256
0.785569
0.806861
0.128469
0.128381
0.139337
0.785570
0.785693
0.210030
0.785548
0.128501
0.128469
0.128469
0.785597
0.785527
0.275120
0.128501
0.139293
0.128574
0.139293
0.128501
0.134853
0.139300
0.134853
0.128501
0.275120
0.139320
0.806766
0.785011
0.139252
0.128475
0.139299
0.128437
0.128574
0.128520
0.139252
0.785596
0.785588
0.128520
0.139299
0.128544
0.275120
0.128486
0.128505
0.139293
0.128527
0.128534
0.128437
0.785656
0.128501
0.128501
0.785633
0.139270
0.134853
0.139298
0.785011
0.139337
0.615026
0.785405
0.128538
0.128505
0.785672
0.785625
0.139252
0.128538
0.139322
0.785629
0.785682
0.139270
0.139299
0.128544
0.792914
0.139301
0.128425
0.786334
0.128544
0.785576
0.786334
0.139319
0.139337
0.785647
0.139256
0.128980
0.805710
0.139293
0.785576
0.275120
0.128980
0.785614
0.128501
0.128980
0.798829
0.785569
0.128505
0.128544
0.188293
0.139337
0.785569
0.128381
0.275120
0.128448
0.806793
0.128505
0.785588
0.128466
0.785672
0.785583
0.785417
0.139301
0.139293
0.128437
0.139337
0.128502
0.139293
0.128418
0.128497
0.785672
0.128502
0.128501
0.128469
0.785561
0.139300
0.785641
0.785628
0.139293
0.785609
0.128497
0.139299
0.785719
0.128566
0.139322
0.139337
0.128501
0.785626
0.128381
0.128574
0.274985
0.128501
0.139337
0.785682
0.128544
0.806861
0.128574
0.139293
0.785667
0.139337
0.128544
0.785337
0.139299
0.128980
0.128505
0.128501
0.139289
0.128544
0.786334
0.128566
0.785394
0.128505
0.275120
0.785569
0.139293
0.128456
0.128431
0.128980
0.275148
0.786334
0.785063
0.139299
0.128443
0.139280
0.785631
0.128381
0.128431
0.786334
0.128501
0.785682
0.128566
0.128980
0.128980
0.786334
0.785576
0.785685
0.128443
0.785611
0.785672
0.128980
0.128538
0.128381
0.805882
0.128538
0.128469
0.128566
0.139337
0.128381
0.785588
0.128437
0.128469
0.786058
0.128448
0.785592
0.188293
0.188293
0.128536
0.128469
0.785647
0.786109
0.139248
0.139293
0.128501
0.785661
0.128527
0.139334
0.139256
0.785677
0.128501
0.139299
0.130497
0.275163
0.128980
0.128381
0.128381
0.128534
0.785527
0.128544
0.785591
0.786541
0.785685
0.275049
0.785576
0.785576
0.139300
0.128443
0.199622
0.128443
0.209900
0.139320
0.128469
0.615026
0.139293
0.785624
0.210022
0.128980
0.128980
0.139270
0.128502
0.785641
0.139292
0.275120
0.128502
0.128538
0.139337
0.139293
0.139300
0.209967
0.128505
0.805882
0.128536
0.786334
0.785558
0.806747
0.785729
0.128431
0.787421
0.128469
0.128502
0.210022
0.139319
0.128475
0.785632
0.128502
0.786334
0.128502
0.139322
0.139252
0.128443
0.128505
0.139301
0.785337
0.785601
0.128505
0.786334
0.785655
0.139337
0.139299
0.478679
0.128456
0.139314
0.128469
0.128431
0.128381
0.128574
0.786334
0.128502
0.139292
0.139299
0.188293
0.128980
0.139322
0.785690
0.785683
0.139293
0.785711
0.128501
0.128980
0.139280
0.128566
0.785491
0.785656
0.478679
0.785582
0.785647
0.128418
0.786341
0.188293
0.128538
0.275049
0.128443
0.128536
0.128431
0.785592
0.128448
0.128538
0.785576
0.128538
0.275172
0.139301
0.128448
0.139334
0.128980
0.785672
0.785576
0.788257
0.139320
0.785624
0.785657
0.785694
0.128469
0.210015
0.785606
0.785589
0.139300
0.785693
0.139300
0.692550
0.136636
0.785693
0.139337
0.785632
0.128486
0.128381
0.785758
0.785592
0.210022
0.128527
0.139319
0.128443
0.134853
0.128502
0.136636
0.785696
0.128486
0.139337
0.139293
0.785576
0.209344
0.209880
0.130525
0.139334
0.785673
0.128443
0.128544
0.151758
0.785681
0.785576
0.128381
0.128437
0.139289
0.128475
0.785720
0.785182
0.139256
0.128425
0.128381
0.128443
0.128544
0.786334
0.785548
0.785583
0.139314
0.785672
0.785608
0.785724
0.785598
0.128538
0.789479
0.785682
0.785601
0.128527
0.188293
0.128443
0.786334
0.139319
0.139289
0.785726
0.786334
0.785661
0.128520
0.128502
0.128980
0.139298
0.139299
0.785603
0.785576
0.790579
0.785682
0.139300
0.128475
0.139299
0.139298
0.785216
0.139293
0.128538
0.785726
0.785536
0.128443
0.210022
0.128502
0.785672
0.209344
0.128443
0.139350
0.139292
0.128566
0.128566
0.785577
0.786334
0.139337
0.128466
0.275120
0.806766
0.128381
0.786284
0.789479
0.209880
0.128538
0.209967
0.785605
0.785592
0.785576
0.128486
0.128475
0.785462
0.139270
0.128475
0.128544
0.128544
0.785726
0.128538
0.209967
0.275120
0.128574
0.128566
0.128443
0.788827
0.128502
0.139334
0.139300
0.139350
0.128544
0.139300
0.139337
0.128520
0.130525
0.785654
0.128443
0.139299
0.128574
0.128466
0.139270
0.128425
0.128566
0.128980
0.275049
0.128544
0.128566
0.128418
0.785726
0.128574
0.785588
0.139337
0.139337
0.128980
0.785569
0.139252
0.210015
0.785656
0.128538
0.139293
0.785621
0.139293
0.139337
0.785601
0.786334
0.210022
0.128381
0.785576
0.188293
0.128566
0.772148
0.785590
0.139350
0.785631
0.128437
0.139289
0.128418
0.275120
0.785561
0.188293
0.128505
0.139298
0.139293
0.785592
0.210022
0.139301
0.785576
0.785672
0.128502
0.785644
0.139300
0.128505
0.128501
0.128566
0.139280
0.786334
0.504558
0.785527
0.128505
0.139299
0.128574
0.139293
0.128544
0.139299
0.139334
0.785648
0.275056
0.785735
0.128497
0.128505
0.785135
0.139248
0.128469
0.806778
0.128466
0.136636
0.139280
0.209344
0.128980
0.128456
0.128443
0.128980
0.128502
0.128566
0.128502
0.139334
0.785669
0.785644
0.785285
0.128574
0.806701
0.785561
0.139289
0.785694
0.785629
0.139319
0.128544
0.785678
0.789033
0.139252
0.139300
0.128469
0.139280
0.128980
0.139299
0.128505
0.139299
0.785592
0.275120
0.128520
0.128448
0.128544
0.139350
0.139293
0.128443
0.139293
0.210022
0.199622
0.785592
0.785574
0.128520
0.785577
0.139293
0.785592
0.786334
0.128381
0.785270
0.806756
0.128544
0.785633
0.128443
0.785672
0.128520
0.128486
0.128381
0.128574
0.785693
0.139334
0.806793
0.128574
0.128443
0.188293
0.786334
0.128497
0.785647
0.785529
0.128475
0.785225
0.139337
0.139292
0.139289
0.210015
0.128566
0.128443
0.128520
0.792462
0.139299
0.128486
0.785641
0.139300
0.128443
0.139270
0.139322
0.139299
0.139293
0.128520
0.128497
0.151758
0.128574
0.128469
0.128544
0.785569
0.139337
0.128381
0.786334
0.804462
0.785285
0.128574
0.128566
0.785624
0.785698
0.139299
0.128574
0.139252
0.151758
0.128381
0.139337
0.128486
0.210022
0.786334
0.128505
0.785659
0.134853
0.128466
0.139270
0.785599
0.785225
0.139293
0.128448
0.250713
0.785609
0.785576
0.139350
0.785043
0.785529
0.275120
0.785690
0.785592
0.139300
0.128980
0.785647
0.128502
0.785656
0.139319
0.139293
0.274979
0.139300
0.139301
0.785685
0.128980
0.128566
0.128501
0.128534
0.128980
0.785683
0.128544
0.785628
0.139256
0.134853
0.188293
0.786334
0.209900
0.139299
0.128418
0.139270
0.128538
0.274991
0.785699
0.139252
0.788827
0.785564
0.139334
0.785633
0.139293
0.128574
0.139256
0.785527
0.128502
0.128980
0.128502
0.785685
0.130497
0.128456
0.806861
0.139300
0.785628
0.139293
0.134853
0.139300
0.128574
0.128381
0.128437
0.128505
0.785576
0.128527
0.128980
0.139300
0.128469
0.274975
0.785678
0.128486
0.128502
0.785604
0.790579
0.210030
0.785625
0.128574
0.785624
0.128475
0.139300
0.128980
0.785693
0.139300
0.151758
0.139270
0.139270
0.785678
0.128527
0.139299
0.128381
0.128544
0.139334
0.772148
0.785719
0.139350
0.128980
0.785628
0.139301
0.785589
0.128520
0.128538
0.139270
0.139280
0.785694
0.275146
0.128448
0.139252
0.785524
0.250713
0.788827
0.128505
0.139314
0.130497
0.128486
0.128502
0.128425
0.128502
0.128381
0.806752
0.785576
0.275120
0.128980
0.128574
0.128443
0.785568
0.128466
0.139314
0.130525
0.128381
0.128381
0.128497
0.785592
0.151758
0.139293
0.139300
0.134853
0.128980
0.139337
0.139270
0.139320
0.139293
0.128574
0.786334
0.786334
0.130525
0.785672
0.139300
0.785628
0.128475
0.128469
0.209880
0.128505
0.785719
0.210022
0.128497
0.128443
0.785681
0.785758
0.128980
0.128980
0.128505
0.139320
0.128475
0.128980
0.785647
0.139337
0.128980
0.785569
0.128497
0.209967
0.785617
0.139292
0.128538
0.128574
0.128443
0.786284
0.785696
0.128443
0.188293
0.139337
0.785588
0.785631
0.128566
0.128527
0.128486
0.794966
0.139322
0.786109
0.128502
0.151758
0.785063
0.786058
0.806710
0.139293
0.128456
0.785576
0.128437
0.802785
0.136636
0.785640
0.128486
0.128980
0.139350
0.128381
0.128574
0.128538
0.128497
0.275120
0.786334
0.139337
0.785382
0.128456
0.139292
0.128466
0.128574
0.785367
0.128443
0.139293
0.128538
0.275116
0.785685
0.128502
0.139293
0.275120
0.139319
0.136636
0.138365
0.128980
0.128980
0.128544
0.785576
0.199622
0.128502
0.128486
0.139300
0.806845
0.785588
0.139252
0.786334
0.134853
0.785625
0.785576
0.786334
0.139299
0.128544
0.785576
0.128381
0.139293
0.128534
0.785576
0.785677
0.128527
0.128544
0.139293
0.413381
0.800003
0.128574
0.128466
0.128574
0.128502
0.130497
0.785561
0.790579
0.785587
0.128443
0.128574
0.128443
0.128381
0.139337
0.128466
0.787131
0.209900
0.786334
0.802785
0.139337
0.785624
0.128502
0.785677
0.786334
0.128501
0.128980
0.139320
0.785647
0.139299
0.139293
0.128501
0.139337
0.785628
0.139301
0.275120
0.785640
0.139300
0.786334
0.275120
0.275120
0.128501
0.128574
0.128448
0.139289
0.128437
0.128501
0.139300
0.139292
0.128448
0.128425
0.806679
0.275120
0.785104
0.139299
0.128443
0.128574
0.139314
0.139300
0.139252
0.275011
0.785703
0.128980
0.139320
0.139300
0.128502
0.788827
0.786334
0.785576
0.785568
0.139270
0.128469
0.128980
0.128520
0.128431
0.128574
0.139280
0.128544
0.139292
0.138365
0.785629
0.139301
0.785588
0.786334
0.128381
0.128505
0.139293
0.128502
0.785758
0.785592
0.439096
0.128501
0.139337
0.139300
0.209967
0.785661
0.128448
0.128381
0.128456
0.128437
0.128431
0.128501
0.128381
0.139299
0.128486
0.785576
0.785669
0.785682
0.785462
0.785588
0.785576
0.785576
0.802785
0.785592
0.785639
0.275120
0.139337
0.128502
0.786334
0.139293
0.785527
0.139300
0.785588
0.139300
0.139252
0.139337
0.785592
0.139350
0.139293
0.128431
0.275120
0.128980
0.128566
0.134853
0.139337
0.275120
0.128456
0.785659
0.128443
0.785672
0.785524
0.275120
0.139292
0.139252
0.128520
0.478679
0.785592
0.134853
0.785608
0.785538
0.139280
0.275163
0.785726
0.128469
0.128381
0.786334
0.139256
0.128505
0.792462
0.139293
0.785625
0.128574
0.128497
0.128469
0.128527
0.128448
0.128448
0.139299
0.785588
0.139299
0.128475
0.139319
0.139292
0.785592
0.785063
0.785603
0.139300
0.785571
0.128574
0.128381
0.785225
0.210030
0.128544
0.128520
0.793464
0.128574
0.139300
0.785857
0.128538
0.785576
0.786334
0.785527
0.210015
0.139322
0.139322
0.139293
0.139337
0.128431
0.785647
0.785672
0.128469
0.785626
0.792246
0.128538
0.785576
0.139337
0.128544
0.128431
0.139289
0.128502
0.139350
0.139280
0.128448
0.785604
0.139248
0.128566
0.798829
0.786334
0.139319
0.139314
0.128418
0.139298
0.128437
0.199622
0.128475
0.139337
0.785527
0.209967
0.785628
0.128544
0.128980
0.210022
0.210030
0.139248
0.128381
0.128505
0.785591
0.128497
0.790579
0.128437
0.785129
0.128497
0.275120
0.128566
0.128466
0.785648
0.785588
0.615026
0.274994
0.139299
0.151758
0.128475
0.785632
0.785598
0.275148
0.785608
0.275012
0.128486
0.785609
0.139300
0.785574
0.785592
0.128520
0.139293
0.785691
0.785661
0.138365
0.785647
0.139337
0.139299
0.785711
0.275120
0.139293
0.806679
0.786334
0.785625
0.128431
0.139314
0.128505
0.134853
0.139337
0.785575
0.188293
0.275120
0.128443
0.139292
0.128466
0.128448
0.787421
0.139289
0.128538
0.139299
0.128418
0.128501
0.785576
0.478679
0.130525
0.128501
0.209900
0.128425
0.128443
0.413381
0.139337
0.128538
0.128544
0.786334
0.128381
0.785758
0.275120
0.128980
0.139299
0.128381
0.139314
0.128443
0.787131
0.139292
0.128443
0.128456
0.128502
0.128566
0.128501
0.128443
0.128501
0.128497
0.188293
0.128381
0.785588
0.139280
0.136636
0.128544
0.128448
0.128502
0.128497
0.128534
0.130525
0.785493
0.139293
0.130497
0.786334
0.128980
0.128544
0.128566
0.128538
0.128381
0.139293
0.806766
0.128574
0.139337
0.139293
0.139300
0.128980
0.128502
0.151758
0.785599
0.139298
0.139337
0.128497
0.128544
0.785626
0.139299
0.275120
0.785723
0.786334
0.139320
0.785614
0.785564
0.275144
0.139337
0.128566
0.128431
0.139319
0.275120
0.139320
0.128574
0.128502
0.785621
0.128437
0.128486
0.785598
0.210015
0.806808
0.139319
0.128538
0.789033
0.128574
0.209900
0.785683
0.128520
0.128574
0.785576
0.128505
0.139289
0.128381
0.785621
0.139300
0.209344
0.128980
0.128497
0.785598
0.128574
0.139293
0.128502
0.128502
0.785540
0.139350
0.786334
0.785614
0.128538
0.785624
0.139293
0.139248
0.128486
0.128466
0.128469
0.134853
0.785135
0.128443
0.806845
0.792246
0.139299
0.128381
0.128502
0.128497
0.275054
0.139256
0.128437
0.128574
0.139337
0.128475
0.139299
0.785633
0.139319
0.128437
0.275137
0.275120
0.785672
0.785651
0.128520
0.785612
0.139293
0.275120
0.128544
0.785569
0.139289
0.139299
0.806752
0.128456
0.785681
0.778314
0.128538
0.139270
0.795954
0.128497
0.785628
0.139319
0.785576
0.785540
0.785588
0.139293
0.128544
0.784978
0.128544
0.128497
0.139337
0.128544
0.128536
0.139337
0.274991
0.786334
0.128980
0.128501
0.128466
0.139299
0.139337
0.785672
0.128486
0.139314
0.128456
0.785576
0.785631
0.806752
0.785685
0.128574
0.275120
0.128566
0.275120
0.134853
0.128469
0.139293
0.128475
0.139314
0.128469
0.275120
0.139293
0.128538
0.139256
0.128443
0.785652
0.785698
0.128381
0.478679
0.139299
0.139314
0.806763
0.785410
0.139350
0.478679
0.785576
0.785603
0.128437
0.139350
0.128502
0.128437
0.139299
0.785592
0.139298
0.139248
0.786334
0.275090
0.199622
0.785641
0.785672
0.128456
0.128544
0.128505
0.139292
0.139293
0.785592
0.128502
0.128475
0.785592
0.128486
0.139300
0.139293
0.151758
0.128980
0.786109
0.275120
0.134853
0.128538
0.128501
0.139299
0.128505
0.139299
0.139293
0.785628
0.785554
0.750243
0.128448
0.139293
0.209344
0.785758
0.795954
0.128486
0.785635
0.128437
0.128475
0.275120
0.785592
0.785695
0.128980
0.139322
0.128502
0.785621
0.785691
0.128566
0.139293
0.130497
0.785603
0.134853
0.139298
0.785576
0.128544
0.785579
0.128437
0.806783
0.786284
0.128544
0.785656
0.139300
0.139314
0.128381
0.139334
0.139299
0.128534
0.128443
0.785720
0.128418
0.128418
0.134853
0.785527
0.128418
0.785591
0.128980
0.128425
0.151758
0.139299
0.128497
0.139293
0.128538
0.128431
0.139337
0.139293
0.138365
0.128527
0.139293
0.785305
0.128431
0.786334
0.210015
0.128502
0.128443
0.128520
0.275120
0.128544
0.275154
0.134853
0.139337
0.128448
0.128443
0.139293
0.134853
0.130497
0.139337
0.806861
0.785491
0.128469
0.139322
0.128538
0.139350
0.139337
0.785676
0.128534
0.785538
0.151758
0.139337
0.128505
0.139300
0.275113
0.785588
0.139300
0.139293
0.275120
0.128448
0.128469
0.128544
0.139299
0.139334
0.128520
0.209880
0.128469
0.785523
0.128448
0.785629
0.139300
0.134853
0.128544
0.139298
0.139337
0.805710
0.128466
0.785639
0.128502
0.139337
0.139293
0.785699
0.786334
0.128538
0.128980
0.139298
0.128505
0.128431
0.128544
0.128418
0.139299
0.128502
0.128980
0.139270
0.128536
0.786334
0.128534
0.139292
0.786334
0.128466
0.128505
0.275120
0.128443
0.128502
0.139299
0.139292
0.139337
0.128502
0.128501
0.139252
0.128497
0.785129
0.785857
0.785576
0.785569
0.139300
0.128431
0.128520
0.128980
0.275012
0.274975
0.139299
0.139293
0.128501
0.785337
0.139293
0.283247
0.785614
0.128544
0.128443
0.785622
0.785715
0.139337
0.128431
0.128544
0.128469
0.139322
0.785591
0.139350
0.128381
0.128544
0.130497
0.139299
0.128469
0.139280
0.128536
0.188293
0.785270
0.788827
0.139293
0.128418
0.275012
0.128381
0.785591
0.785652
0.139300
0.785576
0.134853
0.785694
0.128980
0.139293
0.209967
0.128520
0.128475
0.128566
0.139322
0.275120
0.128544
0.209344
0.128501
0.139301
0.139293
0.128980
0.785698
0.128980
0.615026
0.128520
0.128443
0.785569
0.130525
0.785625
0.139301
0.134853
0.139248
0.128501
0.275172
0.139298
0.139280
0.139270
0.128381
0.139337
0.139252
0.128520
0.139350
0.210022
0.139337
0.139319
0.128505
0.128502
0.128418
0.128544
0.139300
0.139319
0.128431
0.413381
0.785648
0.785661
0.136636
0.199622
0.139280
0.785682
0.139300
0.128443
0.139337
0.139293
0.134853
0.785651
0.128520
0.139299
0.128437
0.139337
0.128497
0.773334
0.139300
0.139322
0.785692
0.128574
0.128443
0.139300
0.275074
0.139299
0.139256
0.128538
0.128980
0.128381
0.139337
0.785629
0.785677
0.785589
0.786334
0.785625
0.275120
0.128505
0.139337
0.128497
0.128544
0.139337
0.747394
0.128443
0.139319
0.130497
0.128544
0.128443
0.139300
0.786334
0.785672
0.785633
0.139337
0.128520
0.785648
0.128520
0.139256
0.128448
0.785674
0.785657
0.785690
0.128497
0.128505
0.128475
0.785587
0.130525
0.139252
0.128544
0.128502
0.128381
0.139293
0.806747
0.128505
0.785677
0.128456
0.139256
0.139300
0.209880
0.139289
0.128381
0.139252
0.139319
0.128574
0.128505
0.128538
0.128443
0.786058
0.139319
0.139319
0.128448
0.785667
0.786334
0.128980
0.139337
0.786334
0.785611
0.785587
0.139248
0.275120
0.785614
0.130525
0.785609
0.139293
0.785651
0.128501
0.275120
0.128381
0.128443
0.128527
0.785576
0.128381
0.139293
0.275120
0.139334
0.128544
0.128381
0.128448
0.128574
0.786334
0.128431
0.128980
0.439096
0.128497
0.785656
0.139293
0.785656
0.805882
0.785576
0.128980
0.128501
0.128418
0.128527
0.128501
0.789479
0.785672
0.128980
0.785129
0.139256
0.128520
0.128501
0.139248
0.139298
0.130497
0.210030
0.128520
0.139292
0.139293
0.128544
0.128469
0.692550
0.128980
0.785648
0.139320
0.139270
0.615026
0.139299
0.128980
0.785691
0.128381
0.785592
0.785258
0.785631
0.785703
0.139319
0.139293
0.128466
0.139337
0.275120
0.785592
0.275090
0.128538
0.275120
0.128431
0.139337
0.785592
0.785555
0.128574
0.615026
0.139314
0.128448
0.785662
0.139300
0.139319
0.128381
0.785576
0.785659
0.210022
0.128502
0.785614
0.128544
0.128574
0.792246
0.128501
0.139301
0.786334
0.785645
0.139337
0.128469
0.139293
0.128980
0.785672
0.188293
0.785705
0.785576
0.785857
0.139314
0.785644
0.785569
0.139293
0.275145
0.128520
0.128544
0.785433
0.128544
0.188293
0.128502
0.275120
0.128544
0.128527
0.139334
0.128443
0.139293
0.785592
0.275120
0.128502
0.139292
0.139301
0.128381
0.786334
0.209967
0.128505
0.139322
0.786334
0.139299
0.139319
0.788827
0.139300
0.785647
0.128501
0.785665
0.139299
0.128980
0.128475
0.210022
0.786334
0.785613
0.128502
0.785059
0.128497
0.785587
0.785690
0.128544
0.136636
0.275120
0.275054
0.151758
0.130497
0.128566
0.128502
0.128486
0.786334
0.128501
0.139319
0.139299
0.786334
0.785592
0.139293
0.128501
0.806783
0.128566
0.128437
0.128486
0.139280
0.128502
0.788827
0.139322
0.139301
0.785125
0.806752
0.138365
0.128502
0.128501
0.785043
0.785682
0.128544
0.785608
0.139320
0.139280
0.199622
0.139293
0.139298
0.785726
0.128448
0.128443
0.785576
0.785592
0.139292
0.785576
0.139270
0.139293
0.785589
0.275069
0.128566
0.128418
0.139293
0.785225
0.785606
0.785628
0.785644
0.128437
0.128443
0.128574
0.128980
0.139299
0.210030
0.128381
0.139293
0.139248
0.139256
0.785576
0.128381
0.139298
0.139256
0.128980
0.128574
0.785590
0.139293
0.139314
0.785652
0.785681
0.128544
0.128502
0.785576
0.210030
0.128501
0.136636
0.128443
0.210030
0.128448
0.128443
0.128501
0.785529
0.788257
0.275120
0.785576
0.139299
0.128505
0.785592
0.785646
0.128520
0.128381
0.806679
0.806227
0.785583
0.275054
0.139301
0.139248
0.139299
0.134853
0.128443
0.128502
0.139300
0.785682
0.139350
0.785587
0.128501
0.210015
0.139298
0.800003
0.785491
0.151758
0.785572
0.786334
0.785576
0.785024
0.139334
0.139300
0.785648
0.139314
0.128544
0.128443
0.128505
0.785051
0.139337
0.130525
0.785614
0.128520
0.139299
0.806793
0.786334
0.139319
0.139322
0.785605
0.785405
0.792914
0.139298
0.128980
0.128456
0.785576
0.128574
0.790579
0.139350
0.795954
0.785656
0.139299
0.128502
0.128448
0.139319
0.139300
0.785644
0.139252
0.139280
0.275120
0.128520
0.128520
0.785569
0.128443
0.128497
0.806679
0.128574
0.139293
0.128381
0.786334
0.139248
0.785603
0.139293
0.128443
0.128443
0.139334
0.128980
0.139337
0.139292
0.139337
0.128980
0.785588
0.806752
0.128448
0.139299
0.128520
0.785625
0.128443
0.128443
0.787421
0.786334
0.128418
0.139293
0.139337
0.139293
0.128538
0.788827
0.128544
0.139337
0.128502
0.788257
0.128448
0.128574
0.209344
0.139299
0.786334
0.139270
0.805710
0.128418
0.128505
0.128497
0.785682
0.139299
0.128534
0.128520
0.786334
0.785696
0.128502
0.139300
0.128502
0.128486
0.139280
0.209967
0.128544
0.275120
0.139300
0.139289
0.128544
0.128497
0.128418
0.275120
0.128505
0.128505
0.785646
0.139337
0.785125
0.128574
0.128475
0.139298
0.128469
0.128443
0.798829
0.139320
0.786341
0.478679
0.128437
0.139293
0.128443
0.130525
0.128502
0.785695
0.128443
0.139298
0.802785
0.128448
0.806694
0.128544
0.210015
0.128527
0.139248
0.785639
0.785576
0.139248
0.128505
0.128566
0.785672
0.785524
0.128566
0.139252
0.139301
0.128501
0.128475
0.128980
0.128502
0.139293
0.134853
0.786334
0.785622
0.128574
0.139292
0.139337
0.139293
0.128381
0.139293
0.139270
0.785674
0.139334
0.139299
0.134853
0.134853
0.785576
0.275120
0.785724
0.128544
0.188293
0.787131
0.128566
0.275003
0.785678
0.128437
0.128501
0.128443
0.806717
0.785576
0.139299
0.785592
0.139320
0.128574
0.128574
0.275120
0.785699
0.139314
0.785632
0.806747
0.128381
0.139289
0.806861
0.128505
0.785373
0.134853
0.139320
0.139319
0.128544
0.785719
0.128566
0.785576
0.128501
0.128497
0.139337
0.130525
0.210022
0.275147
0.139289
0.139293
0.139337
0.806784
0.785599
0.785657
0.139300
0.784978
0.139301
0.786058
0.139337
0.785603
0.128980
0.128501
0.139300
0.275120
0.139320
0.139293
0.785576
0.139337
0.785576
0.785726
0.139314
0.139299
0.275120
0.128980
0.139280
0.128980
0.139293
0.785337
0.139293
0.139293
0.128501
0.785592
0.786334
0.139270
0.128418
0.139337
0.139289
0.128469
0.128534
0.128469
0.785394
0.128448
0.128544
0.785609
0.785549
0.139319
0.128466
0.785690
0.128502
0.128502
0.128456
0.139248
0.139299
0.805805
0.786058
0.785685
0.786334
0.785363
0.139280
0.275120
0.139299
0.210030
0.785682
0.139319
0.128381
0.210022
0.128574
0.128437
0.785576
0.139300
0.785549
0.274990
0.128505
0.128381
0.786334
0.785576
0.139337
0.785628
0.785685
0.128443
0.139248
0.139299
0.128520
0.139270
0.139299
0.784745
0.139299
0.785628
0.139337
0.785582
0.275120
0.139280
0.128475
0.209344
0.128544
0.785592
0.128574
0.717926
0.128486
0.785576
0.128574
0.128456
0.128980
0.806756
0.786334
0.128469
0.785672
0.128566
0.139300
0.785636
0.128437
0.128443
0.139299
0.128456
0.774828
0.139299
0.139300
0.785592
0.128566
0.786334
0.785023
0.139337
0.786334
0.139298
0.275120
0.139301
0.139292
0.785631
0.139319
0.128544
0.785614
0.139319
0.139300
0.139337
0.128501
0.209900
0.128381
0.786334
0.128381
0.130525
0.478679
0.139293
0.785613
0.139293
0.128381
0.139337
0.128574
0.128527
0.128520
0.785595
0.785661
0.128497
0.275120
0.139337
0.128497
0.128534
0.139337
0.806694
0.785576
0.275120
0.210030
0.128381
0.128538
0.139300
0.785758
0.139301
0.130497
0.786334
0.128566
0.274985
0.128536
0.275120
0.128534
0.785633
0.786109
0.139334
0.785625
0.139314
0.785636
0.139337
0.478679
0.785592
0.785726
0.785625
0.128980
0.128443
0.785489
0.785659
0.209900
0.128502
0.128443
0.128980
0.139256
0.785624
0.128381
0.128497
0.139270
0.128527
0.275120
0.785588
0.792914
0.139299
0.128574
0.209967
0.785636
0.139314
0.139299
0.130497
0.139314
0.134853
0.139337
0.139299
0.139300
0.128381
0.785554
0.785633
0.785635
0.139314
0.128505
0.275120
0.128574
0.128497
0.785672
0.139300
0.128381
0.785614
0.128448
0.139292
0.139301
0.275088
0.785640
0.785576
0.128980
0.692550
0.785628
0.128443
0.139270
0.128574
0.785640
0.128520
0.130497
0.128448
0.785647
0.139280
0.275120
0.128505
0.128437
0.139293
0.785576
0.250713
0.275120
0.128381
0.785592
0.785673
0.128527
0.785576
0.128502
0.128497
0.139319
0.128502
0.128520
0.790579
0.128574
0.128574
0.786109
0.788827
0.789479
0.128566
0.785696
0.139299
0.785672
0.128448
0.785695
0.785672
0.139337
0.139350
0.785376
0.139299
0.275120
0.785690
0.128502
0.139292
0.128980
0.785592
0.139298
0.785540
0.128502
0.138365
0.128469
0.785592
0.785726
0.128544
0.128527
0.128381
0.785653
0.785576
0.139337
0.139334
0.128544
0.785588
0.785592
0.139270
0.785654
0.128502
0.785588
0.785376
0.128475
0.785137
0.139298
0.128538
0.275120
0.188293
0.744755
0.128566
0.139320
0.128520
0.139293
0.139301
0.139299
0.128574
0.128980
0.128574
0.199622
0.139298
0.130497
0.139300
0.128381
0.785576
0.785569
0.128505
0.139293
0.209880
0.139337
0.785063
0.128566
0.790579
0.785672
0.128520
0.128536
0.128443
0.128566
0.128544
0.786334
0.785674
0.786284
0.128443
0.210022
0.188293
0.139319
0.128501
0.275120
0.128469
0.139299
0.139300
0.785634
0.139337
0.139299
0.785683
0.128443
0.128566
0.128443
0.785585
0.128418
0.139319
0.139299
0.139248
0.128475
0.151758
0.128437
0.785697
0.128448
0.785677
0.785240
0.130525
0.188293
0.209344
0.139337
0.128497
0.785536
0.128980
0.128502
0.785576
0.128980
0.128381
0.785576
0.275003
0.806845
0.139252
0.139300
0.139280
0.786334
0.128544
0.128437
0.139301
0.139337
0.786109
0.785631
0.128502
0.139301
0.139298
0.785628
0.139337
0.275035
0.128980
0.785588
0.128501
0.275120
0.128443
0.786341
0.785592
0.785554
0.763116
0.128456
0.786334
0.128544
0.128980
0.785647
0.128486
0.210030
0.785592
0.785591
0.785632
0.785635
0.128574
0.128486
0.138365
0.806227
0.785576
0.128980
0.139337
0.250713
0.128566
0.128469
0.128980
0.785043
0.786334
0.134853
0.785564
0.139256
0.785603
0.139299
0.128574
0.128520
0.786334
0.785645
0.210030
0.130525
0.128501
0.785678
0.139301
0.275120
0.139300
0.128469
0.139293
0.128544
0.128381
0.128574
0.139256
0.139320
0.128381
0.139252
0.139270
0.128520
0.785719
0.785682
0.275120
0.139293
0.128538
0.128486
0.139314
0.785592
0.134853
0.792947
0.785588
0.128443
0.139337
0.128536
0.785232
0.128574
0.275069
0.128381
0.785656
0.128475
0.134853
0.128456
0.128538
0.785652
0.209344
0.134853
0.785707
0.785647
0.128469
0.785682
0.128431
0.128501
0.763116
0.139270
0.128501
0.139270
0.785564
0.785493
0.128505
0.209880
0.139292
0.128574
0.209900
0.128505
0.786334
0.128418
0.139292
0.785573
0.785588
0.128566
0.785592
0.139292
0.128469
0.139299
0.128574
0.139289
0.785588
0.128566
0.139252
0.139298
0.128475
0.210030
0.128502
0.128574
0.139300
0.275120
0.209880
0.139319
0.128980
0.275120
0.785628
0.139337
0.785672
0.128980
0.785592
0.785576
0.128505
0.139299
0.787421
0.786334
0.250713
0.785590
0.785592
0.786334
0.275120
0.785708
0.128486
0.785671
0.128544
0.806756
0.128486
0.134853
0.128505
0.139293
0.786334
0.139280
0.298596
0.785565
0.128418
0.128437
0.785569
0.128381
0.785667
0.785683
0.151758
0.128425
0.209344
0.128469
0.128505
0.798829
0.136636
0.785628
0.785592
0.785631
0.130525
0.139337
0.275080
0.139301
0.275120
0.128544
0.128456
0.786058
0.128466
0.785646
0.128501
0.139322
0.139299
0.130525
0.128566
0.128456
0.128448
0.139252
0.785182
0.139293
0.785726
0.128544
0.139293
0.785628
0.275120
0.275120
0.785576
0.785305
0.128574
0.275163
0.134853
0.128425
0.128443
0.209967
0.128980
0.139293
0.210015
0.139299
0.128980
0.128501
0.786334
0.139292
0.128505
0.134853
0.139300
0.209880
0.128469
0.128466
0.128469
0.139280
0.128381
0.139280
0.139248
0.785656
0.785285
0.128443
0.139298
0.785685
0.786334
0.128544
0.128527
0.785146
0.785626
0.128381
0.786334
0.128443
0.139293
0.275163
0.128501
0.128486
0.786334
0.139320
0.785032
0.785576
0.786334
0.128502
0.128980
0.139334
0.128437
0.128980
0.139248
0.139337
0.128544
0.128566
0.763116
0.128520
0.134853
0.128486
0.275120
0.128980
0.786334
0.130525
0.128381
0.128469
0.139300
0.128536
0.139337
0.128501
0.128501
0.139293
0.139319
0.128574
0.128475
0.139293
0.139292
0.139334
0.128501
0.128443
0.139256
0.128574
0.139337
0.128443
0.139314
0.139299
0.139256
0.785376
0.717926
0.128544
0.250713
0.128469
0.128418
0.785694
0.128443
0.139350
0.128527
0.128475
0.139293
0.139248
0.785647
0.785576
0.128431
0.139256
0.139300
0.800003
0.209900
0.139280
0.128448
0.139256
0.128502
0.210015
0.139319
0.806752
0.275120
0.139337
0.128448
0.199622
0.139270
0.785758
0.128443
0.139301
0.139293
0.139300
0.128538
0.138365
0.139314
0.786334
0.128502
0.785682
0.128443
0.785633
0.139300
0.139252
0.785758
0.128431
0.275120
0.128566
0.785625
0.128538
0.275120
0.139334
0.210015
0.785576
0.785726
0.128574
0.785582
0.128544
0.128431
0.785758
0.139293
0.139319
0.139293
0.139252
0.139298
0.139334
0.139299
0.139319
0.139322
0.139300
0.128475
0.139337
0.128443
0.139280
0.128469
0.275144
0.788827
0.785576
0.128502
0.128486
0.139299
0.785692
0.139270
0.128574
0.128544
0.128502
0.139293
0.785606
0.139337
0.275120
0.785564
0.275120
0.128566
0.139280
0.139334
0.275012
0.128443
0.128486
0.128980
0.786334
0.128505
0.790579
0.786334
0.139293
0.786334
0.139337
0.785625
0.139293
0.209900
0.786334
0.128466
0.139337
0.139293
0.785698
0.250713
0.139337
0.139300
0.785405
0.139293
0.128502
0.785433
0.128418
0.785611
0.785579
0.275120
0.128566
0.128566
0.209967
0.785682
0.128418
0.785576
0.139252
0.275137
0.785857
0.785605
0.128980
0.785576
0.806756
0.128980
0.139293
0.806756
0.128437
0.785592
0.128538
0.128381
0.363259
0.128381
0.139319
0.139293
0.128574
0.139293
0.128475
0.139299
0.139293
0.139337
0.134853
0.128497
0.785633
0.139322
0.785457
0.806747
0.128980
0.139300
0.128544
0.785624
0.785576
0.786341
0.128475
0.128538
0.139252
0.128566
0.785678
0.139293
0.128544
0.188293
0.128502
0.128527
0.128497
0.275120
0.128443
0.139337
0.128502
0.128466
0.139300
0.786334
0.128502
0.785726
0.785576
0.128456
0.139293
0.806782
0.139293
0.798829
0.139280
0.128443
0.128544
0.130525
0.128381
0.785405
0.785613
0.130497
0.785587
0.785579
0.786334
0.128448
0.128418
0.785693
0.274993
0.139350
0.139289
0.275163
0.139293
0.763116
0.785422
0.275120
0.128469
0.151758
0.128475
0.139350
0.785647
0.275065
0.128538
0.139252
0.136636
0.785580
0.785433
0.128443
0.275076
0.139337
0.128980
0.128486
0.128456
0.785576
0.785632
0.139337
0.128443
0.139319
0.785694
0.785591
0.785646
0.788257
0.128486
0.128566
0.128443
0.139299
0.785674
0.785633
0.275137
0.209880
0.139337
0.128448
0.128431
0.139292
0.128544
0.128486
0.139280
0.128431
0.128544
0.139337
0.128381
0.798829
0.128437
0.128505
0.128544
0.785576
0.128502
0.139300
0.128501
0.139350
0.785604
0.128980
0.139293
0.128475
0.785569
0.128534
0.128502
0.136636
0.785683
0.128520
0.139293
0.785642
0.210022
0.138365
0.785576
0.139350
0.785603
0.785614
0.128980
0.139293
0.128443
0.139289
0.139289
0.128418
0.275120
0.785576
0.774828
0.139300
0.128544
0.615026
0.275090
0.785382
0.785571
0.139293
0.128501
0.128443
0.128443
0.210015
0.128538
0.788827
0.128381
0.139293
0.128502
0.785677
0.128574
0.785285
0.188293
0.210030
0.139293
0.139252
0.139293
0.785166
0.139334
0.139300
0.275120
0.785644
0.786541
0.128466
0.139299
0.786334
0.785624
0.128381
0.785168
0.785632
0.692550
0.128505
0.139270
0.128431
0.199622
0.786334
0.413381
0.128538
0.785569
0.806756
0.139293
0.478679
0.139301
0.139319
0.139322
0.128475
0.128566
0.785422
0.128443
0.139322
0.139298
0.785168
0.139280
0.128443
0.785693
0.128475
0.139299
0.128443
0.128448
0.139300
0.128538
0.128505
0.128574
0.128437
0.785601
0.210030
0.785682
0.139319
0.128544
0.802785
0.785607
0.139322
0.275120
0.138365
0.128418
0.136636
0.785726
0.128443
0.128544
0.275120
0.128980
0.275120
0.139322
0.139319
0.275120
0.275120
0.128538
0.787421
0.763116
0.785576
0.136636
0.128443
0.128980
0.128544
0.199622
0.785719
0.128466
0.773334
0.139299
0.128448
0.785677
0.785726
0.128448
0.128469
0.785647
0.128431
0.785628
0.274990
0.210015
0.785576
0.785681
0.134853
0.128520
0.763116
0.139300
0.128544
0.128502
0.139298
0.128431
0.128544
0.128443
0.139293
0.275120
0.785622
0.128980
0.275080
0.785561
0.139337
0.128469
0.139293
0.274994
0.209900
0.128448
0.139300
0.785667
0.785628
0.128469
0.786334
0.785582
0.128501
0.128980
0.139320
0.128466
0.128469
0.798829
0.139270
0.785693
0.139270
0.134853
0.128448
0.128534
0.130525
0.210030
0.786109
0.785647
0.785605
0.785644
0.128574
0.128425
0.790579
0.139280
0.806861
0.128505
0.139252
0.275120
0.275146
0.128538
0.128566
0.786334
0.139350
0.139293
0.139334
0.139299
0.128418
0.139334
0.785641
0.209880
0.139300
0.786341
0.785576
0.128466
0.138365
0.139301
0.785729
0.128437
0.139270
0.275148
0.128502
0.128497
0.139301
0.128443
0.139289
0.785655
0.806784
0.785576
0.478679
0.128574
0.128497
0.275120
0.128538
0.128381
0.128538
0.128544
0.139256
0.199622
0.785603
0.128443
0.128566
0.199622
0.128980
0.128443
0.139319
0.790579
0.139293
0.785632
0.128980
0.139300
0.785588
0.128448
0.128437
0.128502
0.128431
0.139299
0.785540
0.785157
0.275120
0.128566
0.130497
0.139292
0.785652
0.128505
0.139319
0.785576
0.128501
0.128520
0.139319
0.128505
0.210030
0.139299
0.139320
0.128520
0.128437
0.785090
0.785672
0.128466
0.785624
0.139299
0.128497
0.786334
0.785232
0.128505
0.139300
0.785605
0.128469
0.128566
0.139299
0.128425
0.785644
0.785672
0.784972
0.199622
0.785576
0.128574
0.128437
0.785592
0.785784
0.128431
0.274975
0.139300
0.128501
0.139298
0.139252
0.802785
0.139300
0.785569
0.806694
0.128443
0.136636
0.128381
0.188293
0.478679
0.128497
0.785719
0.128497
0.151758
0.785617
0.128534
0.139320
0.139300
0.128469
0.128574
0.785625
0.139337
0.139293
0.785677
0.128527
0.275120
0.128538
0.139300
0.139293
0.785063
0.128501
0.785635
0.128527
0.139337
0.128486
0.128544
0.139252
0.139293
0.128448
0.138365
0.128980
0.128381
0.128469
0.128381
0.785579
0.806694
0.151758
0.785729
0.128469
0.139300
0.139248
0.139289
0.128980
0.188293
0.786334
0.139299
0.128497
0.275120
0.139350
0.785305
0.774828
0.785711
0.785032
0.128980
0.128502
0.139293
0.139292
0.785624
0.139293
0.139270
0.128544
0.128443
0.139298
0.134853
0.785576
0.128501
0.139319
0.275120
0.128505
0.128538
0.786334
0.139301
0.139301
0.139299
0.134853
0.128486
0.785677
0.785693
0.139337
0.785726
0.786334
0.128574
0.785568
0.128466
0.785605
0.139289
0.139337
0.128418
0.139293
0.139300
0.139301
0.210022
0.785609
0.785576
0.128501
0.128980
0.139293
0.128469
0.139300
0.139293
0.134853
0.139350
0.785683
0.785625
0.785576
0.128443
0.210022
0.134853
0.139300
0.128574
0.128448
0.128980
0.139320
0.785631
0.275148
0.785672
0.275003
0.139293
0.792246
0.785661
0.785758
0.785647
0.806227
0.128501
0.128381
0.139337
0.128448
0.804462
0.785599
0.139314
0.275120
0.128497
0.785656
0.128469
0.128431
0.275120
0.128443
0.139299
0.785232
0.139248
0.128443
0.785624
0.128448
0.134853
0.210022
0.785682
0.128466
0.139270
0.275120
0.128980
0.128544
0.785603
0.128381
0.128443
0.785023
0.128502
0.785636
0.785608
0.209900
0.128501
0.773334
0.128486
0.128425
0.139319
0.128381
0.128505
0.785651
0.128520
0.128486
0.209880
0.785613
0.128520
0.139319
0.128520
0.806733
0.275120
0.128527
0.785624
0.151758
0.785592
0.199622
0.786334
0.275120
0.785729
0.134853
0.785572
0.128980
0.615026
0.128431
0.210015
0.128544
0.128418
0.139314
0.128381
0.139299
0.128502
0.792914
0.139298
0.128538
0.128505
0.128437
0.139319
0.785420
0.785576
0.128980
0.806729
0.128980
0.275120
0.128469
0.139314
0.128566
0.139293
0.275120
0.139293
0.128502
0.128544
0.275120
0.785601
0.130525
0.128381
0.128381
0.478679
0.128980
0.128443
0.786334
0.128538
0.139252
0.128566
0.128980
0.785240
0.128544
0.763116
0.692550
0.128425
0.128566
0.128520
0.139314
0.785491
0.139299
0.128527
0.130497
0.785697
0.788827
0.806756
0.128502
0.128544
0.772148
0.785703
0.210030
0.139337
0.128544
0.139298
0.128574
0.139350
0.128574
0.151758
0.139300
0.128544
0.209880
0.139293
0.785605
0.128980
0.128566
0.151758
0.785104
0.805882
0.128469
0.275120
0.128475
0.786334
0.786334
0.128980
0.139280
0.139299
0.128497
0.128527
0.785696
0.128443
0.788827
0.139292
0.785608
0.128501
0.800003
0.128566
0.128443
0.785659
0.785585
0.139334
0.787131
0.128980
0.139337
0.139298
0.139293
0.128501
0.785648
0.139320
0.128475
0.806756
0.128469
0.139280
0.139301
0.275120
0.139300
0.128469
0.275120
0.785125
0.139299
0.188293
0.209344
0.128418
0.138365
0.128980
0.128980
0.128527
0.806679
0.785225
0.128527
0.785603
0.128469
0.785433
0.139299
0.128538
0.139248
0.786334
0.128469
0.128502
0.785693
0.139337
0.785703
0.139270
0.139299
0.785613
0.139299
0.128475
0.128980
0.139300
0.785667
0.139337
0.275003
0.692550
0.139293
0.785394
0.785576
0.128574
0.785672
0.139293
0.128466
0.785232
0.774828
0.785651
0.139298
0.128475
0.785554
0.785677
0.128469
0.128538
0.785631
0.785577
0.128448
0.275120
0.128381
0.128431
0.139293
0.785624
0.128538
0.128425
0.128475
0.788257
0.128497
0.128497
0.806782
0.139337
0.785582
0.139300
0.786334
0.139292
0.130525
0.785699
0.134853
0.139314
0.785652
0.792462
0.139299
0.128486
0.128505
0.785659
0.785240
0.785656
0.128505
0.128980
0.128469
0.128469
0.786334
0.275054
0.136636
0.128566
0.128437
0.128544
0.210030
0.785629
0.128469
0.139256
0.631164
0.128497
0.139293
0.785576
0.785681
0.139256
0.785694
0.786334
0.786334
0.139337
0.785568
0.128501
0.128497
0.128566
0.128544
0.785603
0.128501
0.139319
0.785692
0.128475
0.210030
0.274979
0.785592
0.785641
0.128502
0.128486
0.785611
0.139319
0.128486
0.188293
0.139252
0.786334
0.128448
0.128486
0.209880
0.139289
0.250713
0.128437
0.128574
0.785696
0.785758
0.785433
0.128980
0.785669
0.128443
0.128501
0.128574
0.785597
0.128486
0.139280
0.785588
0.128502
0.128443
0.128497
0.209880
0.139300
0.139337
0.139299
0.804462
0.139256
0.785672
0.785693
0.785575
0.139350
0.785576
0.139298
0.139293
0.785576
0.139319
0.139300
0.130525
0.785592
0.128534
0.139280
0.151758
0.128574
0.139350
0.128544
0.789479
0.785592
0.788257
0.275120
0.785691
0.139289
0.275120
0.275120
0.711767
0.139322
0.128502
0.128544
0.139256
0.210015
0.128437
0.128437
0.275120
0.785525
0.785529
0.128574
0.785538
0.139337
0.128538
0.139293
0.128527
0.275120
0.363259
0.806701
0.786109
0.128520
0.128431
0.785579
0.139299
0.128475
0.275120
0.785538
0.128475
0.128505
0.128469
0.128475
0.275120
0.275035
0.139299
0.128443
0.209344
0.139337
0.139314
0.139293
0.785579
0.275120
0.785536
0.128497
0.785581
0.250713
0.128520
0.785726
0.139292
0.785659
0.128538
0.786334
0.139337
0.275016
0.128502
0.785373
0.128501
0.806782
0.128534
0.806701
0.785661
0.139322
0.128501
0.134853
0.139292
0.128502
0.128469
0.785527
0.128502
0.128527
0.275120
0.139299
0.785690
0.139293
0.785695
0.785576
0.139293
0.139337
0.139300
0.128544
0.128505
0.134853
0.786334
0.128456
0.139301
0.785625
0.139292
0.139299
0.478679
0.128574
0.785647
0.785656
0.128469
0.128544
0.785588
0.128431
0.128466
0.128980
0.139293
0.139300
0.785695
0.785576
0.785726
0.785682
0.785538
0.128469
0.139293
0.128469
0.128466
0.128443
0.785677
0.139301
0.139319
0.128466
0.128381
0.772148
0.128505
0.128980
0.785611
0.413381
0.128486
0.798829
0.785606
0.785462
0.139293
0.139299
0.128566
0.209344
0.275144
0.128538
0.128501
0.785576
0.785285
0.785527
0.785693
0.275120
0.785628
0.275120
0.128980
0.785679
0.136636
0.139337
0.139293
0.139314
0.128418
0.139256
0.139301
0.139280
0.785382
0.128486
0.275120
0.210015
0.139337
0.128469
0.139293
0.139292
0.128431
0.363259
0.275120
0.275116
0.128381
0.209344
0.128448
0.785672
0.785648
0.139337
0.139322
0.139300
0.139289
0.786334
0.786334
0.128574
0.787131
0.139319
0.139293
0.128443
0.128501
0.210015
0.785698
0.128443
0.413381
0.128502
0.128566
0.785711
0.128497
0.275120
0.139252
0.785719
0.275120
0.785576
0.785565
0.785699
0.139298
0.139337
0.139280
0.139293
0.785629
0.128520
0.275120
0.139248
0.139280
0.139337
0.209967
0.139292
0.786334
0.139293
0.139292
0.786334
0.785609
0.785588
0.785525
0.139298
0.128505
0.785166
0.139350
0.785373
0.139299
0.209344
0.136636
0.786334
0.139293
0.139299
0.139337
0.130497
0.128502
0.128443
0.139252
0.128469
0.785576
0.139280
0.128381
0.139334
0.785625
0.786334
0.139293
0.128544
0.139293
0.139319
0.139322
0.210030
0.139293
0.139252
0.139301
0.785682
0.128520
0.785030
0.128448
0.128538
0.128505
0.785647
0.275120
0.139350
0.128437
0.128566
0.139300
0.128381
0.128448
0.128505
0.139299
0.128497
0.139337
0.275120
0.138365
0.275120
0.128980
0.139293
0.786334
0.128544
0.139292
0.275012
0.128980
0.128437
0.128501
0.128475
0.275120
0.785656
0.785598
0.128425
0.209880
0.128466
0.785693
0.139300
0.139293
0.139337
0.209880
0.139301
0.786334
0.139319
0.128501
0.785472
0.128544
0.128980
0.139293
0.209880
0.138365
0.139292
0.785592
0.128486
0.128502
0.785349
0.785626
0.128536
0.128501
0.128381
0.787131
0.785576
0.128544
0.128469
0.275047
0.139301
0.785629
0.128520
0.785574
0.785678
0.128566
0.788257
0.786334
0.139248
0.139301
0.785694
0.785561
0.806778
0.209344
0.128431
0.128538
0.139292
0.785609
0.128475
0.128431
0.806694
0.785633
0.128980
0.785681
0.785628
0.785625
0.128538
0.139301
0.128443
0.139320
0.128538
0.128544
0.139319
0.128381
0.128505
0.128437
0.128501
0.139293
0.128381
0.785540
0.785726
0.128574
0.139319
0.139293
0.785587
0.128469
0.128501
0.128501
0.139293
0.785564
0.130497
0.785043
0.128520
0.128381
0.785576
0.785588
0.128418
0.139300
0.151758
0.139300
0.786334
0.785692
0.128980
0.130497
0.128980
0.128437
0.209880
0.785695
0.128544
0.128520
0.275120
0.785659
0.128443
0.128527
0.785232
0.785232
0.128574
0.128980
0.128431
0.128431
0.128501
0.139252
0.785726
0.785647
0.275120
0.128544
0.275144
0.615026
0.128381
0.139280
0.128566
0.139298
0.139270
0.792647
0.786109
0.785657
0.785694
0.786334
0.139337
0.128381
0.788257
0.128469
0.786334
0.130497
0.128501
0.788827
0.275120
0.139299
0.209967
0.128980
0.128536
0.139300
0.128520
0.139293
0.785558
0.785696
0.785538
0.785648
0.785633
0.139252
0.128520
0.275090
0.128544
0.139337
0.785857
0.128566
0.806845
0.139301
0.128469
0.209344
0.139337
0.139289
0.128456
0.785729
0.128502
0.128425
0.139322
0.785590
0.128502
0.139289
0.786334
0.139293
0.785677
0.785298
0.210022
0.786334
0.139350
0.199622
0.785574
0.128443
0.139270
0.134853
0.130497
0.128574
0.275120
0.785576
0.275120
0.139314
0.134853
0.128381
0.128381
0.785729
0.785672
0.128475
0.188293
0.615026
0.785726
0.128574
0.274994
0.128574
0.128574
0.128466
0.209900
0.128425
0.128381
0.128443
0.785726
0.128544
0.128544
0.128566
0.128544
0.139293
0.128538
0.128505
0.128486
0.139293
0.806861
0.139334
0.806766
0.274994
0.128544
0.128448
0.785576
0.139337
0.128538
0.128448
0.139293
0.128505
0.139319
0.128544
0.128469
0.275120
0.139256
0.763116
0.128437
0.139299
0.128437
0.209967
0.275120
0.785751
0.128497
0.785657
0.785603
0.139299
0.274979
0.128544
0.740706
0.785633
0.139293
0.128505
0.785719
0.139293
0.785628
0.128431
0.139319
0.128497
0.128501
0.275120
0.139270
0.139337
0.128381
0.139301
0.128469
0.785576
0.139293
0.139300
0.128502
0.275120
0.128501
0.128505
0.785690
0.785611
0.128497
0.209344
0.806694
0.139270
0.139289
0.128443
0.139337
0.128536
0.139337
0.128980
0.128544
0.128431
0.139350
0.128381
0.774828
0.139293
0.786334
0.785529
0.128381
0.785165
0.128448
0.209967
0.785647
0.199622
0.785589
0.788827
0.128980
0.209880
0.785592
0.128475
0.128502
0.128574
0.139319
0.785648
0.139293
0.130497
0.139293
0.128381
0.128527
0.785651
0.209900
0.275120
0.128520
0.210022
0.735331
0.128536
0.128437
0.128566
0.128538
0.128497
0.785592
0.785641
0.128443
0.128486
0.128527
0.128486
0.128381
0.785598
0.786334
0.128538
0.128980
0.139301
0.785472
0.128566
0.128538
0.128497
0.139337
0.128980
0.128502
0.785657
0.128520
0.128418
0.128469
0.128505
0.128448
0.128501
0.785672
0.139334
0.275120
0.275012
0.786334
0.785683
0.128443
0.785587
0.785592
0.785726
0.128381
0.785647
0.128980
0.139292
0.786334
0.763116
0.210030
0.139299
0.128574
0.139300
0.128566
0.275120
0.139334
0.128497
0.785729
0.275120
0.785639
0.790579
0.785592
0.785697
0.128520
0.139301
0.128469
0.139337
0.128486
0.785270
0.478679
0.128980
0.128566
0.139300
0.139337
0.128501
0.139280
0.128538
0.785726
0.785636
0.785694
0.128980
0.130525
0.128566
0.717926
0.139293
0.785693
0.785611
0.128475
0.363259
0.275120
0.786058
0.128574
0.128980
0.128980
0.130497
0.793464
0.139300
0.130525
0.128469
0.785672
0.128501
0.139293
0.785569
0.806845
0.785588
0.785674
0.785686
0.139248
0.128980
0.128980
0.128566
0.785677
0.785682
0.128431
0.139350
0.139319
0.128456
0.128431
0.785579
0.785527
0.806710
0.128544
0.128497
0.139337
0.139314
0.128980
0.128469
0.139300
0.275120
0.139293
0.785611
0.128544
0.139319
0.136636
0.128501
0.130497
0.128505
0.139293
0.128497
0.128381
0.128475
0.128501
0.786334
0.128566
0.785656
0.139334
0.130525
0.128538
0.128544
0.275120
0.139300
0.785059
0.139319
0.128502
0.139350
0.275120
0.785024
0.785694
0.139337
0.128497
0.128505
0.275116
0.128431
0.139293
0.139334
0.785735
0.275120
0.128486
0.785270
0.806717
0.139293
0.785656
0.128381
0.786334
0.128443
0.128502
0.128497
0.128431
0.139299
0.128502
0.785636
0.785576
0.139334
0.128520
0.128566
0.275120
0.717926
0.785693
0.806752
0.275074
0.128475
0.139300
0.128574
0.785677
0.128534
0.785258
0.128431
0.785677
0.188293
0.128381
0.785576
0.128469
0.785699
0.128501
0.138365
0.128501
0.128574
0.806752
0.128544
0.128574
0.785683
0.130497
0.128566
0.139299
0.139337
0.787421
0.139314
0.785648
0.128505
0.128501
0.128544
0.130525
0.139293
0.136636
0.139337
0.785569
0.275120
0.128381
0.210022
0.785703
0.785576
0.139256
0.128469
0.275012
0.128475
0.128381
0.139314
0.774828
0.139320
0.139300
0.128502
0.128566
0.209967
0.785720
0.785053
0.139299
0.785693
0.128502
0.785685
0.275120
0.128505
0.128534
0.128980
0.128381
0.128437
0.130525
0.804462
0.139299
0.128566
0.128469
0.139300
0.139300
0.785577
0.785571
0.128448
0.128501
0.785633
0.139299
0.785644
0.128381
0.128497
0.128544
0.128980
0.789479
0.275065
0.786334
0.128574
0.128980
0.128574
0.785629
0.134853
0.275120
0.134853
0.139320
0.130497
0.128443
0.785137
0.130525
0.209967
0.785569
0.128469
0.128466
0.128980
0.786334
0.717926
0.128520
0.139319
0.785588
0.128437
0.786334
0.139299
0.139300
0.785711
0.785592
0.275120
0.786334
0.478679
0.128456
0.128520
0.128418
0.785626
0.139299
0.139293
0.138365
0.786334
0.128544
0.210030
0.139299
0.785694
0.139293
0.139248
0.128505
0.275120
0.134853
0.786109
0.139319
0.128469
0.128574
0.275114
0.128443
0.128448
0.139337
0.128466
0.139293
0.139301
0.139300
0.275012
0.136636
0.139299
0.139293
0.139289
0.785367
0.139337
0.785649
0.785576
0.785598
0.128502
0.786334
0.138365
0.275120
0.128497
0.139337
0.128443
0.785693
0.139300
0.139256
0.128544
0.128443
0.786334
0.139298
0.785682
0.128443
0.199622
0.128501
0.139299
0.139300
0.128502
0.785582
0.785382
0.785138
0.139293
0.139270
0.128534
0.139300
0.139337
0.128448
0.128501
0.128475
0.785659
0.275016
0.128574
0.785647
0.785605
0.128566
0.139319
0.785585
0.785587
0.128475
0.139300
0.128431
0.806766
0.128448
0.785622
0.785672
0.128980
0.139299
0.139299
0.128437
0.128443
0.128520
0.785674
0.128574
0.134853
0.139293
0.139293
0.139337
0.128980
0.128502
0.209880
0.139337
0.128534
0.128502
0.139301
0.128566
0.209344
0.130497
0.806752
0.128505
0.785605
0.128502
0.786058
0.139289
0.128566
0.139334
0.128418
0.139293
0.139322
0.128574
0.275163
0.139319
0.785063
0.139337
0.128381
0.128566
0.785698
0.139337
0.139322
0.139319
0.275120
0.128544
0.785576
0.128502
0.275120
0.188293
0.785720
0.130497
0.785694
0.806717
0.128469
0.128418
0.139319
0.478679
0.785063
0.781872
0.785576
0.128534
0.785024
0.128574
0.134853
0.785624
0.128469
0.139337
0.275120
0.139334
0.209344
0.210022
0.128497
0.139337
0.128469
0.139337
0.128566
0.785656
0.128544
0.139299
0.128538
0.785592
0.128466
0.785569
0.128505
0.138365
0.785707
0.128437
0.786334
0.785644
0.128520
0.785576
0.128544
0.785576
0.128456
0.128505
0.785690
0.128501
0.785632
0.128425
0.139337
0.806793
0.128381
0.128497
0.188293
0.128448
0.128469
0.139280
0.128505
0.785628
0.128502
0.139293
0.128425
0.199622
0.275049
0.139248
0.139319
0.128456
0.139293
0.139280
0.139293
0.128544
0.786334
0.139299
0.785857
0.128469
0.785624
0.209880
0.128544
0.210030
0.128418
0.785652
0.128443
0.275012
0.785472
0.128534
0.785128
0.128381
0.139280
0.785694
0.128538
0.785549
0.785682
0.199622
0.128466
0.139299
0.786334
0.806752
0.139299
0.139293
0.785625
0.128497
0.139299
0.128534
0.128486
0.250713
0.128538
0.128544
0.134853
0.128448
0.139300
0.806766
0.139293
0.785661
0.139350
0.785683
0.128538
0.139322
0.139298
0.128466
0.128448
0.128505
0.128486
0.128566
0.785376
0.139280
0.139350
0.785607
0.139299
0.128502
0.785628
0.139280
0.788827
0.806766
0.139293
0.139299
0.128544
0.785493
0.128538
0.139337
0.128443
0.785592
0.139293
0.785726
0.139293
0.128980
0.139337
0.250713
0.128534
0.806752
0.785677
0.128505
0.128574
0.128431
0.128497
0.785699
0.128486
0.128527
0.785024
0.128381
0.128469
0.128443
0.139293
0.785591
0.128502
0.139248
0.139334
0.785576
0.128536
0.785639
0.785576
0.128443
0.128466
0.786334
0.788257
0.792914
0.128566
0.136636
0.139252
0.139334
0.786334
0.210022
0.139300
0.128497
0.785647
0.785232
0.128980
0.128448
0.785587
0.128448
0.128443
0.128566
0.139299
0.786334
0.413381
0.785341
0.139350
0.806710
0.128574
0.139337
0.785648
0.786541
0.128486
0.785592
0.139293
0.785636
0.128574
0.188293
0.128475
0.785699
0.139280
0.128527
0.128980
0.128443
0.139270
0.139293
0.139299
0.139293
0.128534
0.785305
0.785588
0.139300
0.785567
0.128448
0.128544
0.139299
0.128502
0.128469
0.139256
0.128469
0.139248
0.128502
0.128448
0.785601
0.785647
0.128980
0.209900
0.786334
0.139301
0.785647
0.128381
0.128501
0.128502
0.139301
0.128381
0.128505
0.130525
0.128544
0.139350
0.785657
0.785333
0.275137
0.128505
0.128980
0.785653
0.139322
0.139337
0.128538
0.128544
0.139337
0.139337
0.128486
0.785536
0.128502
0.785659
0.785667
0.785577
0.806766
0.128574
0.806845
0.139293
0.128501
0.139293
0.785657
0.128502
0.139248
0.785696
0.128505
0.785633
0.134853
0.785644
0.139292
0.128381
0.209967
0.275120
0.806793
0.128486
0.128520
0.785457
0.128418
0.199622
0.139300
0.128437
0.128431
0.139256
0.785576
0.128538
0.785576
0.128574
0.139256
0.128980
0.139299
0.786334
0.128502
0.139299
0.786334
0.785104
0.789033
0.785540
0.128505
0.128448
0.275120
0.139293
0.139293
0.139337
0.785576
0.139300
0.785588
0.128574
0.786334
0.139256
0.139270
