0.837810
0.837679
0.837665
0.837810
0.837710
0.837720
0.837827
0.268331
0.268246
0.268306
0.837726
0.268288
0.837798
0.268339
0.268370
0.268306
0.268370
0.268221
0.268331
0.268295
0.268377
0.268454
0.268330
0.837800
0.268377
0.837716
0.837787
0.837727
0.837679
0.837810
0.837747
0.837746
0.837749
0.837810
0.837738
0.837665
0.837705
0.837684
0.268351
0.837714
0.837666
0.837677
0.837801
0.837787
0.268300
0.837679
0.268255
0.837712
0.268259
0.268265
0.837823
0.837700
0.268397
0.837756
0.268339
0.268333
0.268454
0.268282
0.268377
0.837725
0.800012
0.693908
0.268370
0.837679
0.268272
0.268250
0.837810
0.268372
0.837686
0.837808
0.268370
0.837691
0.268256
0.268405
0.268287
0.837767
0.268282
0.268300
0.268359
0.837748
0.268408
0.268454
0.837695
0.837810
0.837655
0.268377
0.268331
0.268454
0.268370
0.837809
0.837810
0.268331
0.268426
0.546751
0.837799
0.837662
0.837668
0.268331
0.268337
0.268370
0.837758
0.837724
0.268460
0.837705
0.268288
0.837663
0.268377
0.268370
0.268330
0.268306
0.268306
0.837810
0.837684
0.268413
0.837810
0.837810
0.268454
0.837774
0.837787
0.837796
0.268255
0.837705
0.837720
0.837701
0.837800
0.268420
0.268397
0.268331
0.837693
0.837726
0.268282
0.837693
0.268460
0.268359
0.268420
0.268331
0.268303
0.268426
0.268351
0.837810
0.837768
0.268412
0.268331
0.268267
0.268282
0.837728
0.268267
0.268365
0.268365
0.837797
0.268217
0.268306
0.837731
0.268460
0.837740
0.837800
0.268259
0.268300
0.837665
0.268259
0.837810
0.837665
0.268372
0.837810
0.268430
0.268306
0.837699
0.837679
0.268272
0.268265
0.268259
0.268331
0.837725
0.268272
0.268246
0.837796
0.268261
0.268377
0.837796
0.268314
0.837800
0.837679
0.546751
0.837762
0.268300
0.268221
0.837679
0.268314
0.837679
0.837666
0.268341
0.837679
0.268416
0.268370
0.268306
0.837823
0.268377
0.837787
0.268359
0.837812
0.837759
0.268376
0.268365
0.268279
0.837805
0.837810
0.268217
0.837810
0.837827
0.837705
0.837808
0.268377
0.268303
0.268397
0.268300
0.837679
0.268276
0.268300
0.268288
0.837752
0.268430
0.837810
0.268426
0.268306
0.837758
0.268295
0.837788
0.837800
0.268287
0.268408
0.268339
0.268272
0.837787
0.268430
0.268377
0.837655
0.268377
0.546751
0.837679
0.837679
0.720280
0.837810
0.268377
0.837737
0.268370
0.268331
0.837705
0.268416
0.837743
0.268319
0.268272
0.837714
0.268372
0.268332
0.268331
0.268416
0.268365
0.268314
0.837785
0.268265
0.837696
0.268370
0.268272
0.268424
0.268231
0.268412
0.268408
0.837743
0.268426
0.268370
0.268412
0.837756
0.837702
0.268282
0.837658
0.837816
0.268426
0.268397
0.837749
0.837768
0.268397
0.837668
0.268306
0.268426
0.837810
0.268331
0.268460
0.268278
0.837778
0.268330
0.268406
0.693908
0.268454
0.837712
0.268330
0.268377
0.837758
0.837688
0.837810
0.837679
0.293303
0.268331
0.837810
0.268376
0.268231
0.268412
0.837741
0.268397
0.837679
0.268370
0.268221
0.837800
0.268306
0.837810
0.837665
0.837776
0.268460
0.268339
0.268357
0.268359
0.837731
0.837824
0.837787
0.837781
0.268337
0.268256
0.837766
0.268370
0.268272
0.753829
0.268339
0.569198
0.268416
0.837691
0.837735
0.268377
0.837810
0.268337
0.268397
0.268460
0.546751
0.268377
0.837789
0.837703
0.268257
0.837792
0.268460
0.837715
0.837810
0.837798
0.268306
0.837691
0.837789
0.268276
0.268300
0.268460
0.268377
0.268306
0.837679
0.837810
0.837812
0.268460
0.268413
0.837796
0.837789
0.268255
0.268287
0.268339
0.268331
0.837705
0.268265
0.268217
0.268370
0.837809
0.268430
0.837725
0.268413
0.268256
0.268331
0.268272
0.837758
0.268221
0.269186
0.268282
0.268261
0.837810
0.569198
0.837810
0.268282
0.837782
0.837665
0.268256
0.268454
0.837658
0.268306
0.837716
0.268272
0.268300
0.268377
0.268295
0.268256
0.837787
0.837705
0.268267
0.837789
0.837785
0.268256
0.268397
0.268370
0.268420
0.268331
0.837799
0.837776
0.837716
0.268372
0.837720
0.837740
0.268272
0.837735
0.837691
0.269186
0.837712
0.268430
0.268300
0.837692
0.268416
0.837762
0.837794
0.268300
0.837666
0.268359
0.268259
0.837796
0.837684
0.268256
0.837759
0.268331
0.268397
0.268331
0.837679
0.837810
0.837767
0.837679
0.268331
0.837800
0.268370
0.268426
0.837679
0.837810
0.837679
0.268272
0.268306
0.268331
0.837714
0.837662
0.268256
0.268397
0.268259
0.268420
0.837679
0.268405
0.268330
0.837763
0.837679
0.837800
0.268272
0.268430
0.837748
0.837810
0.268424
0.268416
0.837796
0.837713
0.837688
0.837798
0.837679
0.837700
0.268365
0.837755
0.837726
0.268408
0.268412
0.268377
0.293303
0.837724
0.268265
0.837785
0.434939
0.268405
0.297387
0.268339
0.837766
0.268397
0.837758
0.268288
0.268303
0.268460
0.268300
0.268410
0.268339
0.268265
0.268306
0.268267
0.268397
0.268337
0.268397
0.837789
0.837668
0.837832
0.268397
0.837810
0.837726
0.837776
0.837668
0.268261
0.268351
0.268460
0.268231
0.837705
0.837790
0.837810
0.268288
0.837788
0.268278
0.268370
0.268306
0.268331
0.837716
0.268306
0.268272
0.837688
0.837725
0.268306
0.268365
0.837705
0.268261
0.268399
0.837737
0.268377
0.837801
0.268370
0.837783
0.268424
0.837807
0.837696
0.800012
0.268377
0.837798
0.268331
0.268295
0.837738
0.837705
0.268306
0.837735
0.268337
0.837807
0.837720
0.268357
0.268460
0.837789
0.268372
0.268300
0.837798
0.268217
0.268399
0.837760
0.268339
0.837785
0.837679
0.268306
0.268370
0.837755
0.837716
0.837765
0.837787
0.837810
0.837810
0.837708
0.268408
0.268377
0.268225
0.268306
0.268303
0.837780
0.837750
0.268370
0.837800
0.268314
0.837668
0.268265
0.837728
0.837657
0.837679
0.268397
0.268365
0.837718
0.837796
0.837801
0.837810
0.268295
0.837684
0.829381
0.837688
0.569198
0.837714
0.837810
0.268256
0.837816
0.268397
0.837716
0.837807
0.837755
0.268221
0.268267
0.837781
0.268261
0.837705
0.837810
0.835400
0.268339
0.837763
0.837810
0.837810
0.268408
0.268377
0.268399
0.837679
0.268424
0.268351
0.837769
0.837679
0.268312
0.837679
0.837769
0.268221
0.837810
0.837705
0.837679
0.837769
0.268231
0.837803
0.837810
0.837820
0.268331
0.268370
0.837771
0.268339
0.837716
0.268377
0.268295
0.268300
0.268267
0.268408
0.837787
0.837776
0.837787
0.268412
0.268306
0.268300
0.268331
0.837721
0.268430
0.268460
0.268272
0.837798
0.268370
0.837732
0.837798
0.268234
0.268337
0.268295
0.268288
0.837723
0.268426
0.268454
0.837778
0.837710
0.268314
0.268217
0.268377
0.833718
0.837679
0.837800
0.297387
0.837810
0.837705
0.268331
0.837807
0.268279
0.837735
0.837787
0.268256
0.837668
0.837658
0.837680
0.837668
0.268377
0.268246
0.268295
0.837809
0.268370
0.268376
0.837740
0.837787
0.837701
0.837662
0.268424
0.268330
0.268295
0.268331
0.837720
0.837686
0.268397
0.268261
0.268314
0.837679
0.268295
0.268208
0.837810
0.268295
0.837788
0.268306
0.268377
0.268339
0.837720
0.837788
0.268408
0.837675
0.268339
0.720280
0.268288
0.837738
0.268331
0.837686
0.268276
0.268282
0.837716
0.268408
0.268377
0.837705
0.837757
0.837782
0.837751
0.837740
0.268330
0.837749
0.268276
0.837759
0.837737
0.837788
0.268246
0.268420
0.268351
0.837738
0.837752
0.546751
0.837789
0.800012
0.268255
0.837800
0.837701
0.837741
0.837817
0.837793
0.268331
0.837738
0.269186
0.837661
0.268424
0.268217
0.268256
0.268424
0.837827
0.268408
0.837725
0.268377
0.268426
0.268331
0.268424
0.268377
0.268276
0.268303
0.837677
0.268359
0.837727
0.268331
0.268420
0.837780
0.268460
0.837712
0.837820
0.268377
0.268246
0.837717
0.268256
0.268272
0.837679
0.268363
0.268267
0.268295
0.268377
0.268333
0.268416
0.837705
0.268408
0.268408
0.837688
0.268256
0.837713
0.268303
0.268231
0.268397
0.268295
0.837721
0.268397
0.268332
0.837768
0.268365
0.268426
0.837679
0.837769
0.837796
0.837679
0.837789
0.268359
0.268306
0.837679
0.268272
0.837743
0.837679
0.268377
0.837716
0.837800
0.837785
0.837679
0.837759
0.268331
0.268331
0.837763
0.268276
0.837796
0.837665
0.268221
0.837790
0.837757
0.268300
0.268246
0.268408
0.837705
0.837679
0.837700
0.268331
0.268370
0.268397
0.837677
0.268412
0.268397
0.837705
0.268408
0.268350
0.837680
0.268303
0.268372
0.268397
0.837679
0.837720
0.837668
0.268370
0.268408
0.837725
0.268339
0.268430
0.569198
0.837798
0.837749
0.268357
0.268377
0.837724
0.837720
0.837719
0.268460
0.837749
0.268300
0.268282
0.837780
0.837810
0.837679
0.837679
0.837691
0.837810
0.268397
0.268279
0.268256
0.837665
0.268331
0.837662
0.837696
0.268426
0.268408
0.268221
0.837800
0.268275
0.837679
0.837810
0.837679
0.837716
0.268377
0.837679
0.268234
0.268377
0.837743
0.837695
0.837738
0.837679
0.268372
0.268430
0.837810
0.268256
0.837789
0.837679
0.268281
0.268331
0.843357
0.837662
0.268424
0.268377
0.268360
0.268424
0.268300
0.837763
0.268365
0.268303
0.268408
0.837790
0.268424
0.268265
0.268330
0.837705
0.268255
0.268306
0.268300
0.268248
0.837658
0.268276
0.268339
0.268416
0.268300
0.268377
0.837738
0.837701
0.268300
0.268377
0.837810
0.837662
0.268351
0.837666
0.837712
0.837759
0.268399
0.268272
0.268339
0.837679
0.837732
0.268221
0.837749
0.268295
0.268420
0.837725
0.268428
0.837679
0.837781
0.268287
0.837696
0.268460
0.837810
0.268314
0.268255
0.837810
0.268430
0.268397
0.837693
0.837705
0.837696
0.268331
0.268397
0.268306
0.268370
0.268231
0.837819
0.268412
0.837755
0.268265
0.268276
0.268412
0.837757
0.837810
0.837810
0.268370
0.837784
0.837749
0.837800
0.268408
0.268300
0.268267
0.837712
0.837700
0.268272
0.837755
0.837785
0.268377
0.837816
0.268256
0.837658
0.837680
0.268278
0.268300
0.837805
0.268265
0.837796
0.837738
0.268256
0.268300
0.268397
0.268351
0.837705
0.837788
0.837749
0.837705
0.268377
0.268331
0.837803
0.837724
0.837680
0.268265
0.268351
0.837693
0.268370
0.268306
0.268331
0.837800
0.268221
0.268255
0.837800
0.268430
0.268370
0.837771
0.837742
0.268370
0.837767
0.268372
0.837790
0.837654
0.837719
0.268359
0.268314
0.837662
0.837800
0.268295
0.268231
0.268255
0.763060
0.837713
0.268272
0.268405
0.268330
0.268424
0.268276
0.268408
0.268430
0.837800
0.837679
0.268256
0.268331
0.837743
0.268256
0.268246
0.837705
0.268365
0.268376
0.268246
0.268376
0.269186
0.837810
0.837769
0.268420
0.837810
0.837658
0.268408
0.837784
0.837810
0.837800
0.837810
0.837712
0.268377
0.268331
0.268408
0.837658
0.268276
0.268288
0.268408
0.268331
0.268408
0.837810
0.268377
0.268300
0.837657
0.268272
0.268313
0.837810
0.837720
0.268416
0.837701
0.268261
0.837740
0.837781
0.268306
0.837810
0.268351
0.268377
0.268259
0.837716
0.268357
0.837662
0.268259
0.268377
0.837789
0.268416
0.837790
0.837735
0.268376
0.268424
0.268272
0.268331
0.268231
0.268331
0.837668
0.837679
0.268359
0.837794
0.837679
0.837668
0.268282
0.268377
0.434939
0.837657
0.268454
0.269409
0.837810
0.268265
0.268256
0.837738
0.837683
0.837705
0.268217
0.837720
0.268377
0.268454
0.268377
0.837692
0.268377
0.837679
0.837755
0.837809
0.268331
0.268331
0.268300
0.837738
0.268365
0.268331
0.268261
0.268376
0.268331
0.837762
0.837670
0.837670
0.268430
0.268460
0.268370
0.837679
0.837679
0.268276
0.268377
0.837800
0.268424
0.268397
0.268365
0.837704
0.268331
0.837781
0.837724
0.268331
0.837665
0.268231
0.268259
0.837735
0.837798
0.837792
0.268306
0.268295
0.268306
0.268377
0.837808
0.268265
0.837720
0.268306
0.268377
0.837700
0.268377
0.268314
0.268339
0.268377
0.837725
0.268424
0.268265
0.837679
0.837774
0.837787
0.268351
0.268426
0.837712
0.693908
0.837764
0.837656
0.268331
0.268265
0.837679
0.268331
0.837800
0.837741
0.837695
0.268256
0.837748
0.268331
0.837657
0.837679
0.268306
0.268426
0.268377
0.837810
0.837785
0.268276
0.268357
0.837733
0.837750
0.268424
0.268279
0.837705
0.268416
0.837801
0.837810
0.268416
0.268408
0.268377
0.268377
0.268331
0.837715
0.268306
0.268246
0.837832
0.837767
0.268256
0.837741
0.837705
0.837701
0.268256
0.268424
0.268408
0.268331
0.268377
0.837738
0.268408
0.837657
0.268408
0.837656
0.837716
0.268300
0.268377
0.434939
0.837686
0.837662
0.837721
0.837719
0.837810
0.268397
0.268408
0.837669
0.268426
0.268246
0.268420
0.268357
0.837679
0.837730
0.268412
0.837778
0.269186
0.268272
0.268256
0.837759
0.837691
0.837679
0.268377
0.268256
0.268397
0.837741
0.837810
0.268259
0.268377
0.268377
0.837768
0.837679
0.837810
0.268365
0.837684
0.268370
0.268370
0.837679
0.837679
0.268370
0.837715
0.837810
0.837800
0.268256
0.268265
0.837716
0.268331
0.268331
0.268377
0.268377
0.268377
0.837810
0.268303
0.837688
0.837799
0.268377
0.268370
0.837809
0.268295
0.268370
0.268405
0.837783
0.268276
0.268256
0.268231
0.268408
0.837666
0.268416
0.837810
0.268430
0.837706
0.837724
0.268306
0.837703
0.268426
0.268408
0.837657
0.837731
0.268265
0.268256
0.837679
0.837738
0.268420
0.268259
0.268370
0.837799
0.268331
0.268339
0.268279
0.268377
0.837704
0.837787
0.837716
0.837743
0.837759
0.837700
0.837715
0.268424
0.268265
0.268261
0.268287
0.268331
0.268288
0.837800
0.268405
0.268408
0.837789
0.268265
0.837724
0.268306
0.268306
0.837705
0.268279
0.268331
0.268255
0.268307
0.268365
0.837820
0.268420
0.268377
0.837787
0.268256
0.837718
0.268377
0.268300
0.268314
0.837705
0.837679
0.268351
0.837800
0.268370
0.837669
0.837702
0.763060
0.837759
0.268399
0.268397
0.837740
0.268359
0.837712
0.837679
0.268370
0.837759
0.837789
0.268217
0.837758
0.837705
0.268282
0.268265
0.268256
0.268331
0.268331
0.268365
0.837705
0.268306
0.837749
0.837665
0.268460
0.268413
0.837723
0.837771
0.837765
0.268331
0.268377
0.268430
0.837832
0.837693
0.837679
0.837725
0.268221
0.268416
0.837725
0.268231
0.268234
0.837775
0.268408
0.268370
0.837810
0.268351
0.837679
0.837676
0.837666
0.268331
0.268424
0.837743
0.268272
0.268314
0.837743
0.837793
0.693908
0.268306
0.837715
0.837675
0.837679
0.837669
0.268370
0.268365
0.837750
0.837708
0.268306
0.268259
0.837755
0.763060
0.268306
0.268420
0.837719
0.837810
0.837816
0.268376
0.837767
0.268221
0.268377
0.268256
0.837776
0.268306
0.379570
0.268288
0.268339
0.268331
0.837679
0.268287
0.268331
0.837738
0.837810
0.837778
0.837785
0.268359
0.837819
0.837765
0.837771
0.268412
0.837781
0.837719
0.268256
0.268408
0.720280
0.837758
0.837705
0.268306
0.268397
0.837794
0.837717
0.837679
0.837787
0.268370
0.268359
0.268303
0.268365
0.837704
0.268331
0.268337
0.837810
0.837810
0.837679
0.268331
0.268282
0.837712
0.268460
0.837762
0.268288
0.837768
0.268300
0.268424
0.837810
0.837800
0.837789
0.268330
0.837727
0.268413
0.268365
0.268397
0.268331
0.837752
0.837832
0.355834
0.837833
0.268426
0.268314
0.268282
0.268265
0.837696
0.837769
0.837705
0.837719
0.837750
0.268357
0.268304
0.837788
0.837702
0.268397
0.268265
0.268416
0.837727
0.268359
0.268295
0.268377
0.837796
0.268454
0.837810
0.268454
0.268272
0.837709
0.837688
0.837691
0.837721
0.837705
0.268377
0.268256
0.268372
0.837789
0.837800
0.268303
0.268300
0.837663
0.268460
0.837733
0.720280
0.268306
0.268377
0.837741
0.268370
0.268397
0.268306
0.268261
0.837679
0.837767
0.268276
0.268306
0.268357
0.268376
0.546751
0.837700
0.268261
0.268221
0.837781
0.268424
0.268306
0.837755
0.837789
0.837810
0.268339
0.268454
0.268416
0.837810
0.837800
0.268416
0.837705
0.269186
0.837768
0.268377
0.268377
0.268265
0.268430
0.268359
0.837679
0.837768
0.837705
0.837711
0.268265
0.837759
0.837679
0.268221
0.837724
0.837810
0.837657
0.268397
0.268377
0.268331
0.268372
0.837735
0.268306
0.837679
0.837699
0.268337
0.269186
0.837778
0.837701
0.837799
0.837705
0.268279
0.268460
0.837684
0.268370
0.268397
0.268460
0.546751
0.268370
0.837760
0.837778
0.268370
0.268330
0.837810
0.837812
0.268255
0.268377
0.268231
0.268306
0.837759
0.268267
0.268331
0.268331
0.837777
0.837800
0.837679
0.268337
0.837787
0.268339
0.268454
0.268405
0.837769
0.837721
0.837679
0.268231
0.268331
0.268359
0.268359
0.268295
0.268397
0.268255
0.268300
0.837767
0.268306
0.693908
0.837724
0.837679
0.837777
0.355834
0.268306
0.268397
0.268377
0.268295
0.837679
0.268282
0.837691
0.268261
0.268288
0.268365
0.268359
0.837769
0.837741
0.837759
0.837825
0.268306
0.268399
0.837810
0.268377
0.837758
0.268231
0.268339
0.268306
0.268370
0.268288
0.268372
0.837744
0.268304
0.837679
0.837695
0.837796
0.837796
0.837750
0.268424
0.837679
0.837705
0.837810
0.837738
0.268351
0.268221
0.268231
0.268337
0.837747
0.837789
0.837789
0.837721
0.268416
0.837656
0.837715
0.268359
0.268276
0.297387
0.837741
0.837787
0.268377
0.837712
0.268370
0.268416
0.268377
0.268282
0.268416
0.837803
0.268314
0.268306
0.837714
0.837668
0.268231
0.268256
0.268405
0.268288
0.268365
0.268424
0.837785
0.268256
0.837658
0.268255
0.268351
0.268278
0.268231
0.837679
0.837713
0.837752
0.268246
0.268279
0.268331
0.268413
0.268370
0.837787
0.268377
0.268424
0.268365
0.837781
0.837696
0.268442
0.837679
0.837718
0.268287
0.268370
0.837740
0.837784
0.268246
0.837750
0.837798
0.268413
0.268306
0.837768
0.837785
0.837712
0.837679
0.837810
0.837679
0.837704
0.268255
0.268351
0.837701
0.837700
0.434939
0.268372
0.268370
0.268377
0.837693
0.837658
0.837777
0.268351
0.837712
0.837777
0.837757
0.837810
0.268306
0.268337
0.268288
0.268295
0.837759
0.268331
0.837771
0.837810
0.837774
0.269186
0.837789
0.268408
0.837692
0.837800
0.268370
0.837769
0.837679
0.268256
0.546751
0.837695
0.837807
0.837762
0.837727
0.837692
0.837766
0.837778
0.837692
0.837737
0.837668
0.268265
0.268306
0.268306
0.837755
0.268405
0.837705
0.837750
0.837677
0.837679
0.268306
0.837743
0.268261
0.297387
0.837803
0.837731
0.268276
0.837810
0.268337
0.837800
0.268246
0.268370
0.268265
0.268397
0.837679
0.268331
0.837803
0.268212
0.268318
0.837787
0.268408
0.837800
0.837658
0.268426
0.268306
0.837749
0.268259
0.837679
0.837667
0.837805
0.268430
0.268259
0.268377
0.268377
0.837789
0.268306
0.268265
0.837767
0.837679
0.268370
0.837810
0.268256
0.268370
0.837724
0.268424
0.268272
0.268460
0.268246
0.268377
0.268259
0.268426
0.837679
0.837717
0.293303
0.837800
0.837740
0.268424
0.268272
0.848804
0.837717
0.268359
0.837810
0.837783
0.837810
0.268359
0.837680
0.268339
0.837810
0.268377
0.837695
0.268303
0.268377
0.268339
0.837735
0.268331
0.268255
0.268288
0.837735
0.268377
0.268231
0.837801
0.837716
0.268400
0.837787
0.268408
0.268272
0.268370
0.837720
0.837701
0.837741
0.837705
0.837790
0.268306
0.379570
0.837780
0.837810
0.837758
0.268256
0.569198
0.837677
0.268330
0.268272
0.268430
0.837668
0.837810
0.268327
0.837679
0.837796
0.268272
0.268408
0.837810
0.268331
0.268331
0.837668
0.837810
0.837823
0.569198
0.837759
0.837719
0.268397
0.837679
0.837800
0.268246
0.268276
0.837674
0.268272
0.268331
0.268370
0.837705
0.837778
0.268397
0.268460
0.837705
0.837713
0.268314
0.268221
0.268337
0.268306
0.268337
0.837748
0.379570
0.837803
0.837709
0.268331
0.837738
0.763060
0.837769
0.837816
0.268306
0.268377
0.837823
0.837696
0.268330
0.268377
0.837810
0.837705
0.837677
0.837735
0.268265
0.837717
0.268331
0.837772
0.837743
0.837668
0.268331
0.268256
0.837768
0.268413
0.837720
0.837679
0.837713
0.837714
0.837738
0.268306
0.268430
0.268331
0.837794
0.268430
0.268397
0.837800
0.837709
0.837724
0.268408
0.268306
0.268306
0.268231
0.268306
0.837788
0.268416
0.837774
0.268256
0.837810
0.837759
0.268376
0.268300
0.293303
0.268255
0.753829
0.837785
0.837741
0.268331
0.268225
0.268370
0.837788
0.268287
0.268424
0.268246
0.837661
0.837692
0.268246
0.268287
0.837720
0.268377
0.837696
0.837710
0.268426
0.837767
0.837810
0.268399
0.837679
0.268300
0.268272
0.268362
0.837713
0.837726
0.268397
0.268261
0.837665
0.268331
0.268408
0.268331
0.837679
0.837789
0.268246
0.268306
0.268408
0.837705
0.837789
0.268303
0.268306
0.837799
0.268331
0.837787
0.268359
0.268306
0.268256
0.268416
0.837823
0.837705
0.837679
0.268331
0.837771
0.569198
0.837810
0.268306
0.837705
0.268337
0.268265
0.268288
0.268265
0.837721
0.837724
0.268395
0.837668
0.837668
0.268295
0.268424
0.837679
0.837720
0.268377
0.268370
0.268265
0.837810
0.837705
0.268377
0.837810
0.268365
0.837679
0.837750
0.837738
0.837712
0.837810
0.837735
0.837771
0.268365
0.837796
0.268314
0.837782
0.837677
0.268306
0.268370
0.837832
0.837675
0.268287
0.268397
0.268370
0.268272
0.268303
0.837731
0.837751
0.268255
0.837810
0.268377
0.268397
0.837756
0.837738
0.268255
0.268426
0.837759
0.268339
0.837684
0.837810
0.837721
0.837720
0.837767
0.837679
0.268416
0.837765
0.268365
0.837735
0.837824
0.268256
0.268370
0.268279
0.268307
0.837768
0.268370
0.269391
0.800012
0.268221
0.268420
0.268405
0.268265
0.837743
0.837748
0.837700
0.268265
0.837686
0.837810
0.268416
0.268306
0.837738
0.268426
0.837752
0.837536
0.837710
0.268377
0.837705
0.268339
0.837705
0.268426
0.837810
0.268231
0.837810
0.837658
0.837781
0.268397
0.837679
0.837787
0.837679
0.837769
0.268370
0.268424
0.268306
0.268377
0.837798
0.268369
0.268331
0.837787
0.837792
0.837776
0.268332
0.837800
0.268272
0.837684
0.837740
0.268339
0.268256
0.837749
0.268454
0.268246
0.268370
0.268306
0.837827
0.268370
0.268255
0.268221
0.268370
0.268300
0.268231
0.268330
0.837750
0.268314
0.837701
0.268339
0.268331
0.837755
0.268350
0.269186
0.268300
0.837759
0.837661
0.268372
0.268426
0.837679
0.268261
0.837825
0.268231
0.268276
0.268306
0.837714
0.837679
0.837738
0.837776
0.837810
0.268426
0.837796
0.268306
0.268408
0.268424
0.837759
0.837704
0.268255
0.268306
0.268314
0.837732
0.837810
0.268377
0.268267
0.837661
0.268377
0.837810
0.837767
0.837794
0.837790
0.837794
0.837771
0.268306
0.268306
0.268287
0.837801
0.837679
0.837810
0.268377
0.268400
0.268306
0.268303
0.837812
0.268331
0.837704
0.268416
0.268279
0.268416
0.268397
0.269186
0.837825
0.837679
0.837797
0.268231
0.837698
0.837810
0.837810
0.268424
0.268460
0.837688
0.268370
0.837775
0.268426
0.837767
0.268265
0.268267
0.268370
0.268331
0.268424
0.268331
0.268377
0.837658
0.837797
0.268256
0.837810
0.837765
0.837731
0.268397
0.837702
0.837803
0.837788
0.837712
0.268410
0.837679
0.837679
0.837810
0.268365
0.837721
0.268357
0.268420
0.268265
0.268331
0.268460
0.268408
0.268370
0.837810
0.837788
0.268397
0.268351
0.837702
0.268339
0.268399
0.837679
0.837810
0.268357
0.268256
0.837662
0.837709
0.268256
0.268377
0.837796
0.268424
0.837783
0.268372
0.837679
0.355834
0.268306
0.268341
0.268377
0.837705
0.837725
0.268454
0.268287
0.837720
0.268331
0.268370
0.837803
0.379570
0.837701
0.837705
0.268460
0.837738
0.268306
0.837810
0.268416
0.837738
0.268377
0.837810
0.837759
0.837796
0.837761
0.837800
0.837738
0.268397
0.837679
0.268259
0.268426
0.268359
0.837711
0.837663
0.837802
0.268376
0.268261
0.837705
0.837749
0.837657
0.268235
0.837755
0.268259
0.693908
0.297387
0.837796
0.268370
0.837816
0.268405
0.268460
0.268256
0.268256
0.837810
0.837810
0.837825
0.268331
0.268337
0.268288
0.837705
0.837679
0.837704
0.268303
0.837702
0.268208
0.837679
0.268430
0.837810
0.268255
0.268331
0.268255
0.837705
0.837760
0.268306
0.837787
0.837677
0.268257
0.837823
0.837792
0.837820
0.837789
0.837776
0.268454
0.837823
0.268377
0.837738
0.268370
0.837792
0.837691
0.837810
0.837701
0.268377
0.837720
0.268377
0.268330
0.268288
0.268300
0.268256
0.268276
0.837679
0.837699
0.268295
0.268377
0.837737
0.837705
0.268377
0.837810
0.837720
0.693908
0.268351
0.837679
0.837705
0.268246
0.268377
0.268339
0.268331
0.268376
0.268370
0.837705
0.837810
0.837726
0.837787
0.268294
0.268370
0.837710
0.268306
0.268397
0.268265
0.268377
0.268377
0.837679
0.268259
0.268282
0.268306
0.837679
0.268330
0.837759
0.268460
0.837808
0.268288
0.837692
0.268300
0.268454
0.627284
0.268276
0.268331
0.268460
0.268399
0.837737
0.268256
0.837679
0.268265
0.837810
0.837810
0.837701
0.837720
0.837676
0.268377
0.268408
0.268331
0.268294
0.837823
0.837800
0.268400
0.268306
0.268377
0.837782
0.268261
0.837679
0.268377
0.837661
0.837798
0.268288
0.837721
0.268377
0.837767
0.268377
0.268397
0.268331
0.837679
0.268361
0.268303
0.268255
0.268306
0.837756
0.268408
0.837705
0.268300
0.837705
0.268373
0.268365
0.268365
0.837716
0.268231
0.268259
0.837738
0.268410
0.268255
0.268255
0.268256
0.837698
0.837819
0.268331
0.268426
0.837744
0.837787
0.268370
0.837662
0.268424
0.268331
0.268272
0.837787
0.268331
0.268295
0.837705
0.837810
0.268295
0.837800
0.837756
0.837701
0.268351
0.268377
0.837800
0.268276
0.837796
0.837755
0.837827
0.837705
0.269186
0.837679
0.268390
0.837740
0.268295
0.268306
0.837766
0.837679
0.268370
0.837728
0.837679
0.268377
0.268370
0.837781
0.268287
0.837774
0.837810
0.268306
0.837658
0.268420
0.268377
0.268397
0.268300
0.268376
0.268331
0.837796
0.837712
0.268256
0.268314
0.268397
0.268359
0.837720
0.837668
0.268408
0.268265
0.837809
0.837705
0.837794
0.268282
0.837679
0.837810
0.268256
0.837798
0.268261
0.837776
0.837789
0.268265
0.268331
0.268288
0.837679
0.837662
0.268426
0.268397
0.268265
0.837704
0.268377
0.268460
0.268339
0.268460
0.837658
0.837680
0.837705
0.837781
0.268261
0.268377
0.837749
0.268331
0.268282
0.268231
0.268256
0.268365
0.837792
0.837727
0.837724
0.837794
0.268331
0.837677
0.837803
0.837750
0.268331
0.268372
0.268359
0.268454
0.268416
0.268426
0.837715
0.837719
0.546751
0.268331
0.268426
0.268300
0.837662
0.268265
0.268365
0.837819
0.837716
0.837700
0.837705
0.837705
0.837679
0.268256
0.268359
0.268460
0.837684
0.837701
0.268420
0.837800
0.837679
0.268377
0.837787
0.268306
0.268372
0.837768
0.837719
0.268331
0.268424
0.268377
0.837752
0.268365
0.837781
0.837665
0.268256
0.268331
0.837762
0.837740
0.268339
0.837785
0.268377
0.268370
0.268377
0.268424
0.837679
0.837789
0.837793
0.837698
0.268351
0.268306
0.837731
0.837732
0.268424
0.837679
0.268234
0.837679
0.837702
0.837726
0.268256
0.837748
0.837719
0.837720
0.837737
0.837810
0.268331
0.268272
0.268372
0.268272
0.837759
0.268357
0.837801
0.268256
0.268370
0.268300
0.268331
0.268306
0.837798
0.268261
0.837728
0.268330
0.268420
0.268377
0.837763
0.268377
0.268331
0.268377
0.837799
0.837737
0.837714
0.837680
0.837816
0.268331
0.837800
0.268221
0.268255
0.837819
0.837810
0.837716
0.268351
0.268331
0.837717
0.837796
0.268337
0.268259
0.268351
0.268331
0.837738
0.268282
0.268261
0.837705
0.837799
0.837727
0.837702
0.837737
0.837823
0.837705
0.837715
0.268231
0.837810
0.268259
0.268377
0.268259
0.837771
0.837771
0.837705
0.837777
0.837712
0.837665
0.268372
0.268314
0.268408
0.268416
0.837738
0.268365
0.268300
0.837800
0.720280
0.268300
0.268331
0.837807
0.268306
0.268300
0.268282
0.837679
0.837804
0.268288
0.268377
0.546751
0.268267
0.837796
0.268377
0.837800
0.837764
0.268377
0.837778
0.837790
0.837688
0.837816
0.837721
0.268400
0.837827
0.837713
0.837679
0.837740
0.837695
0.268331
0.268288
0.837762
0.268416
0.379570
0.268279
0.268272
0.268272
0.837810
0.268442
0.837691
0.268460
0.837715
0.268272
0.837781
0.268397
0.268265
0.837727
0.268337
0.837680
0.268331
0.268405
0.837718
0.268265
0.268282
0.269186
0.720280
0.268272
0.268430
0.837755
0.837724
0.268337
0.268246
0.268377
0.268300
0.297387
0.837665
0.268306
0.268279
0.837810
0.268413
0.268397
0.268426
0.837816
0.268306
0.268377
0.268377
0.268331
0.268454
0.837696
0.837790
0.837738
0.837768
0.268365
0.837808
0.837766
0.268300
0.268256
0.268460
0.268276
0.837695
0.837746
0.837705
0.268424
0.268408
0.268300
0.268377
0.268397
0.837794
0.837748
0.268332
0.837833
0.268303
0.268397
0.268397
0.268408
0.837755
0.268397
0.268408
0.837789
0.837820
0.837665
0.837805
0.268430
0.297387
0.837717
0.268331
0.837817
0.268430
0.268460
0.268377
0.837665
0.837800
0.268426
0.837810
0.268331
0.268288
0.268288
0.268337
0.837705
0.268376
0.268282
0.837658
0.837705
0.268337
0.837735
0.268370
0.837787
0.268397
0.268217
0.268246
0.837810
0.268339
0.837676
0.837691
0.268243
0.268377
0.268377
0.268339
0.268351
0.268408
0.837726
0.268287
0.268288
0.837686
0.837720
0.268272
0.268306
0.268424
0.268408
0.268267
0.837738
0.268303
0.268359
0.268376
0.837738
0.268303
0.837749
0.837679
0.268314
0.837724
0.268416
0.268339
0.837718
0.268306
0.837789
0.837705
0.837702
0.837705
0.297387
0.268331
0.268460
0.837666
0.837738
0.268331
0.546751
0.268397
0.837789
0.268423
0.268370
0.837763
0.837769
0.837662
0.268412
0.837810
0.268246
0.268377
0.848348
0.434939
0.379570
0.837820
0.268256
0.837665
0.837703
0.268332
0.837765
0.837705
0.268303
0.837766
0.837656
0.268306
0.279818
0.268460
0.837658
0.837701
0.837759
0.268306
0.268372
0.268413
0.837665
0.268351
0.268303
0.268256
0.837762
0.268331
0.268370
0.837796
0.837787
0.268397
0.268300
0.268416
0.837735
0.268331
0.268420
0.837810
0.693908
0.268424
0.268287
0.268413
0.268397
0.837668
0.837725
0.268306
0.837747
0.268350
0.837785
0.268397
0.837718
0.268287
0.268231
0.268255
0.837782
0.268370
0.268426
0.837679
0.837658
0.268370
0.268272
0.268300
0.837679
0.837810
0.268365
0.837785
0.837789
0.837677
0.268295
0.838117
0.837726
0.837803
0.268288
0.837810
0.837718
0.837720
0.837789
0.837758
0.837741
0.268261
0.268307
0.837730
0.837772
0.837798
0.268377
0.268272
0.837666
0.268377
0.837789
0.268295
0.268288
0.837679
0.268250
0.268287
0.837794
0.268304
0.268331
0.546751
0.268377
0.268370
0.837790
0.268351
0.268300
0.837810
0.268330
0.268376
0.268288
0.268377
0.268377
0.837823
0.837658
0.837705
0.837679
0.268351
0.837752
0.837743
0.268300
0.837712
0.837771
0.837810
0.837680
0.837810
0.268288
0.837750
0.837741
0.268300
0.837759
0.268377
0.837679
0.837721
0.837788
0.268405
0.837810
0.269391
0.268420
0.268299
0.268331
0.268370
0.837769
0.268300
0.268330
0.837668
0.268377
0.837810
0.837684
0.268246
0.268337
0.837684
0.837679
0.837810
0.268288
0.268221
0.268460
0.268424
0.837705
0.268397
0.837731
0.837810
0.268370
0.268327
0.268412
0.837679
0.837799
0.837810
0.834089
0.837780
0.834089
0.837705
0.837705
0.268430
0.268272
0.268339
0.837820
0.837666
0.268265
0.268331
0.693908
0.268408
0.268331
0.837679
0.268265
0.268377
0.268306
0.837709
0.837816
0.837679
0.837668
0.837712
0.837705
0.837748
0.268306
0.268397
0.268282
0.837794
0.268359
0.837816
0.837716
0.837656
0.268377
0.837789
0.837691
0.268397
0.268397
0.268256
0.268377
0.268259
0.268306
0.268330
0.837769
0.268256
0.268359
0.837759
0.837810
0.837802
0.268306
0.837679
0.268408
0.268300
0.268256
0.268430
0.268399
0.837718
0.837679
0.268377
0.837665
0.268380
0.837816
0.268430
0.829381
0.837768
0.268359
0.693908
0.268330
0.837810
0.268331
0.268259
0.268330
0.837701
0.837705
0.268303
0.837679
0.837832
0.837787
0.268256
0.268377
0.837788
0.268426
0.268306
0.837705
0.837679
0.268370
0.837686
0.837662
0.268339
0.268246
0.837675
0.837686
0.268256
0.837680
0.837740
0.268460
0.268276
0.268377
0.268416
0.268256
0.837810
0.837738
0.837810
0.837810
0.268288
0.837810
0.268416
0.268420
0.268460
0.837701
0.837705
0.837686
0.837679
0.268370
0.268351
0.837787
0.837676
0.268377
0.837747
0.268295
0.837810
0.837696
0.268416
0.268217
0.268259
0.837758
0.268306
0.268265
0.268416
0.268330
0.268377
0.837810
0.268370
0.268306
0.837741
0.268370
0.268295
0.837705
0.268314
0.837756
0.837705
0.268256
0.268454
0.268339
0.837827
0.268397
0.837823
0.268234
0.268256
0.837769
0.837800
0.837731
0.800012
0.268272
0.268460
0.268408
0.837799
0.268424
0.268430
0.268281
0.268377
0.268300
0.837800
0.268408
0.268377
0.837705
0.837711
0.837816
0.268256
0.269186
0.837782
0.268306
0.268300
0.837743
0.837679
0.837810
0.837800
0.837737
0.268395
0.268376
0.268303
0.837794
0.837679
0.268306
0.268426
0.268376
0.268306
0.837701
0.268303
0.837778
0.837780
0.268377
0.268377
0.268331
0.837716
0.837668
0.837759
0.268331
0.837765
0.268351
0.268359
0.837708
0.837681
0.837810
0.268370
0.268303
0.837790
0.837813
0.268287
0.268351
0.268377
0.268261
0.837789
0.837659
0.268282
0.837728
0.268370
0.800012
0.268221
0.268256
0.268363
0.837712
0.268288
0.837733
0.268332
0.837679
0.837665
0.837787
0.268372
0.837745
0.837800
0.268377
0.693908
0.268272
0.268370
0.268412
0.837669
0.268365
0.837662
0.268454
0.268288
0.268208
0.268331
0.268304
0.837824
0.819861
0.268397
0.268265
0.268397
0.268372
0.268420
0.268370
0.837679
0.268372
0.837705
0.268424
0.268267
0.268300
0.837796
0.268306
0.268259
0.837823
0.837705
0.837691
0.720280
0.837781
0.837665
0.837783
0.268330
0.268377
0.268246
0.268255
0.837768
0.837771
0.268412
0.268304
0.837808
0.837700
0.268246
0.837691
0.268377
0.268300
0.268306
0.837800
0.837796
0.837741
0.268256
0.837711
0.837711
0.837705
0.837743
0.837679
0.268377
0.268454
0.268217
0.268377
0.268287
0.268397
0.268261
0.269186
0.837810
0.837759
0.297387
0.837803
0.837712
0.837810
0.837768
0.837665
0.837738
0.268370
0.268255
0.268377
0.268332
0.837780
0.268408
0.369970
0.837735
0.268300
0.693908
0.837808
0.268395
0.268267
0.268454
0.268221
0.268265
0.268370
0.526041
0.268397
0.268370
0.268339
0.837750
0.837655
0.268272
0.268265
0.268363
0.837810
0.268288
0.268351
0.837800
0.837810
0.269186
0.837695
0.355834
0.837718
0.268377
0.268339
0.297387
0.268306
0.268306
0.268255
0.837738
0.268300
0.268231
0.837679
0.268287
0.268256
0.839386
0.837679
0.837679
0.837685
0.268261
0.268377
0.268370
0.837810
0.837679
0.837705
0.268306
0.837666
0.268430
0.837679
0.837788
0.837679
0.837720
0.837720
0.268365
0.268295
0.268256
0.837810
0.268377
0.837810
0.837759
0.837705
0.837705
0.837800
0.268377
0.837747
0.837695
0.268460
0.268221
0.268314
0.837810
0.837758
0.837679
0.837658
0.268426
0.837752
0.837686
0.268420
0.837800
0.268397
0.837778
0.268246
0.837799
0.268221
0.268426
0.837715
0.268276
0.837798
0.268306
0.837798
0.268424
0.268261
0.693908
0.268221
0.837798
0.268306
0.268357
0.837810
0.837721
0.837693
0.268330
0.837712
0.837703
0.268250
0.837810
0.837800
0.837823
0.837769
0.837679
0.268416
0.837679
0.268306
0.268397
0.268303
0.837810
0.837752
0.268351
0.268377
0.268272
0.837794
0.837810
0.837721
0.269186
0.837803
0.268331
0.268300
0.268267
0.837691
0.268377
0.268208
0.268265
0.837810
0.837715
0.268314
0.837693
0.837810
0.546751
0.268377
0.268256
0.837728
0.837679
0.837679
0.837810
0.837705
0.837800
0.268265
0.268377
0.268331
0.837735
0.837738
0.837776
0.837725
0.837665
0.268412
0.837735
0.269186
0.268370
0.837787
0.837705
0.268424
0.268331
0.837776
0.837833
0.268272
0.268221
0.837755
0.268377
0.268359
0.268365
0.837737
0.269186
0.268376
0.268306
0.837735
0.268265
0.268426
0.268300
0.837824
0.837825
0.268332
0.837749
0.837658
0.268300
0.268377
0.268377
0.268295
0.268377
0.297387
0.837665
0.837800
0.268351
0.268397
0.268223
0.268306
0.268377
0.268397
0.268399
0.837705
0.268460
0.837743
0.268408
0.800012
0.268276
0.837748
0.268397
0.268331
0.268412
0.837720
0.837662
0.837778
0.268259
0.268377
0.837755
0.837798
0.268399
0.268405
0.268306
0.753829
0.837788
0.268256
0.268408
0.837587
0.693908
0.268306
0.837705
0.837810
0.268330
0.268256
0.837788
0.837810
0.269186
0.268265
0.837797
0.268377
0.837686
0.268306
0.268265
0.837700
0.837731
0.268300
0.268399
0.268337
0.837810
0.268314
0.268370
0.837712
0.837790
0.268372
0.837684
0.837801
0.837705
0.268406
0.837684
0.837743
0.268331
0.837686
0.837738
0.837723
0.268377
0.837737
0.268377
0.837700
0.837810
0.837679
0.268295
0.837796
0.268221
0.268339
0.268234
0.268397
0.837823
0.268306
0.837658
0.837679
0.268295
0.268331
0.268397
0.268272
0.268377
0.268256
0.268256
0.837750
0.837679
0.268300
0.268372
0.837789
0.268377
0.268265
0.837670
0.837762
0.837727
0.837781
0.837787
0.268306
0.268288
0.268330
0.834089
0.837810
0.268412
0.837679
0.268412
0.800012
0.268370
0.837666
0.268397
0.837679
0.268330
0.268306
0.837781
0.837800
0.268377
0.268256
0.268331
0.268276
0.268300
0.268265
0.837679
0.268306
0.837679
0.268306
0.268376
0.837751
0.268365
0.268337
0.837738
0.837810
0.268460
0.268377
0.268256
0.268330
0.268256
0.268256
0.837662
0.837710
0.268328
0.268303
0.837737
0.837790
0.837705
0.268221
0.268377
0.268424
0.268295
0.268295
0.837810
0.268287
0.268372
0.268288
0.837704
0.268420
0.837789
0.836181
0.837810
0.268397
0.268416
0.268265
0.268377
0.837800
0.837737
0.837800
0.837810
0.268259
0.268255
0.268282
0.837781
0.268365
0.268314
0.837787
0.268372
0.837696
0.837764
0.268234
0.837810
0.268370
0.837701
0.268397
0.268412
0.268377
0.268410
0.269186
0.268363
0.837700
0.837665
0.610043
0.268377
0.268351
0.837662
0.268288
0.837696
0.837789
0.268408
0.268337
0.837715
0.837679
0.837810
0.268424
0.837705
0.268276
0.837771
0.837720
0.268424
0.837679
0.837768
0.268312
0.379570
0.268279
0.268282
0.268377
0.268377
0.837803
0.268295
0.268261
0.268405
0.837704
0.837658
0.268235
0.268424
0.268377
0.693908
0.268377
0.268365
0.268295
0.268399
0.268370
0.837752
0.837767
0.268331
0.837800
0.268351
0.268256
0.268397
0.837684
0.268408
0.268369
0.268231
0.268255
0.268426
0.837783
0.268256
0.268426
0.268306
0.837685
0.837705
0.837658
0.268420
0.546751
0.268397
0.837708
0.837764
0.837816
0.837803
0.837679
0.268306
0.837700
0.837704
0.268330
0.837702
0.837695
0.268420
0.837800
0.837810
0.268377
0.268255
0.268460
0.268359
0.268339
0.837810
0.268303
0.837752
0.268306
0.837748
0.837792
0.837724
0.268377
0.268339
0.837768
0.837679
0.837701
0.268259
0.268377
0.837658
0.268272
0.837798
0.268377
0.837763
0.268408
0.268300
0.837800
0.837705
0.268331
0.268370
0.837701
0.268377
0.837761
0.268288
0.268424
0.268272
0.837752
0.837797
0.268234
0.268306
0.268331
0.268454
0.837812
0.837776
0.837657
0.837702
0.268351
0.268370
0.837735
0.837803
0.837800
0.268350
0.268282
0.268330
0.837800
0.268300
0.268377
0.837799
0.268300
0.268337
0.268377
0.268331
0.268397
0.837730
0.268276
0.268426
0.837771
0.837789
0.268331
0.268217
0.837800
0.268397
0.268372
0.268426
0.268408
0.268314
0.268397
0.268351
0.268261
0.268377
0.268370
0.268339
0.837705
0.268408
0.837755
0.268339
0.268365
0.837696
0.268426
0.837781
0.379570
0.837701
0.837679
0.837738
0.837712
0.268246
0.837758
0.268257
0.379570
0.837656
0.610043
0.837710
0.268416
0.837688
0.268276
0.837810
0.268377
0.379570
0.837738
0.837679
0.268370
0.837657
0.268331
0.268405
0.268272
0.837747
0.837705
0.837713
0.837810
0.268460
0.268282
0.837674
0.268426
0.837686
0.268365
0.268276
0.837758
0.268365
0.837800
0.837757
0.837679
0.268370
0.837709
0.837679
0.268420
0.837820
0.268397
0.837675
0.268256
0.268234
0.837719
0.268377
0.268397
0.268272
0.268331
0.268265
0.837712
0.837800
0.268339
0.268212
0.268395
0.268454
0.268430
0.837810
0.268365
0.837803
0.268272
0.837771
0.268416
0.268256
0.268331
0.837759
0.837757
0.268416
0.268288
0.268276
0.268426
0.268372
0.269186
0.268331
0.268300
0.268221
0.268397
0.268300
0.268303
0.837715
0.268399
0.837787
0.268221
0.268331
0.268416
0.268430
0.837680
0.837810
0.837719
0.268454
0.268365
0.268405
0.268337
0.268397
0.268460
0.268405
0.837721
0.837680
0.837781
0.837738
0.837800
0.268272
0.268408
0.268337
0.837674
0.268256
0.837810
0.268395
0.837810
0.837727
0.268377
0.837704
0.837712
0.837810
0.837785
0.837714
0.837705
0.268330
0.268331
0.837798
0.837796
0.268331
0.837747
0.268281
0.837789
0.268330
0.268365
0.837796
0.268377
0.837665
0.269186
0.268377
0.268331
0.837679
0.268295
0.837758
0.268331
0.268339
0.837790
0.837759
0.837662
0.268256
0.268370
0.268258
0.268337
0.268337
0.837803
0.268306
0.268377
0.268416
0.837716
0.268261
0.268300
0.837750
0.837696
0.837679
0.837810
0.268430
0.268295
0.268272
0.268408
0.268408
0.268331
0.837787
0.837782
0.837787
0.268377
0.837701
0.268272
0.268256
0.268231
0.268370
0.837679
0.837804
0.268217
0.268365
0.837698
0.293303
0.837769
0.837767
0.268377
0.268337
0.837720
0.837796
0.268282
0.268272
0.837788
0.268416
0.268397
0.837718
0.837788
0.268397
0.837679
0.268376
0.837709
0.837705
0.837800
0.837794
0.837708
0.837705
0.837810
0.268272
0.693908
0.837766
0.268331
0.268246
0.268377
0.268295
0.268276
0.837705
0.837808
0.837810
0.837726
0.268430
0.268377
0.268231
0.837721
0.837704
0.837810
0.268337
0.268231
0.268330
0.837789
0.269391
0.268330
0.268303
0.379570
0.837748
0.268288
0.837707
0.268460
0.268306
0.268397
0.837711
0.268424
0.268314
0.268397
0.837705
0.268265
0.837720
0.268337
0.268370
0.268306
0.837695
0.268314
0.837713
0.268426
0.268331
0.268397
0.268331
0.837750
0.837796
0.268377
0.268370
0.268420
0.837810
0.837679
0.268331
0.837810
0.268426
0.268408
0.268361
0.837679
0.268397
0.837757
0.837760
0.268454
0.269186
0.268337
0.837679
0.837763
0.837654
0.268377
0.268377
0.800012
0.268408
0.268306
0.268256
0.837771
0.837705
0.837810
0.837720
0.268255
0.268359
0.837741
0.268377
0.268420
0.268300
0.837680
0.268377
0.268377
0.837816
0.379570
0.268397
0.268408
0.268330
0.753829
0.837679
0.837700
0.837800
0.268276
0.837710
0.268256
0.837810
0.837763
0.268255
0.268331
0.268256
0.268420
0.268370
0.268416
0.837787
0.268272
0.837677
0.837697
0.837798
0.837679
0.268454
0.268265
0.837778
0.268377
0.268288
0.268412
0.837816
0.837810
0.268256
0.837658
0.268256
0.837810
0.268303
0.837810
0.268460
0.268265
0.268330
0.268430
0.268351
0.837738
0.268424
0.268420
0.268426
0.268397
0.268231
0.268377
0.268306
0.268330
0.837679
0.837741
0.268408
0.837788
0.837804
0.837787
0.268426
0.837666
0.268259
0.268365
0.837796
0.268413
0.837810
0.268225
0.837827
0.268430
0.837801
0.268426
0.268306
0.837679
0.268372
0.268303
0.268217
0.268256
0.268454
0.269186
0.268331
0.837812
0.268377
0.268377
0.268272
0.268331
0.837679
0.268460
0.837810
0.268370
0.268306
0.268377
0.837680
0.837668
0.837787
0.268412
0.268397
0.837741
0.268413
0.268265
0.837679
0.268272
0.837738
0.693908
0.837701
0.268370
0.837702
0.268365
0.837788
0.837783
0.268397
0.837800
0.837789
0.268331
0.837768
0.837720
0.837787
0.268454
0.268276
0.268255
0.268300
0.837774
0.268412
0.268359
0.837741
0.837778
0.837677
0.268424
0.268430
0.268256
0.837710
0.268221
0.837691
0.837677
0.837765
0.268454
0.268351
0.268288
0.268306
0.837699
0.268397
0.837705
0.268272
0.268217
0.837679
0.268306
0.837755
0.837737
0.837738
0.268397
0.268361
0.268265
0.268331
0.837798
0.268408
0.837717
0.837778
0.815469
0.837700
0.837758
0.268231
0.268288
0.837679
0.837810
0.268331
0.268261
0.268295
0.837789
0.837810
0.268399
0.268370
0.837668
0.268257
0.837740
0.837700
0.837705
0.268288
0.837798
0.268300
0.268288
0.268256
0.837705
0.268314
0.268357
0.268370
0.268255
0.837755
0.837714
0.837747
0.837759
0.569198
0.268314
0.837695
0.268408
0.268377
0.297387
0.837679
0.268300
0.837679
0.268331
0.268408
0.837679
0.268377
0.268288
0.837827
0.837679
0.268272
0.837788
0.268460
0.268377
0.297387
0.837776
0.268259
0.268426
0.268314
0.268430
0.268331
0.268332
0.268359
0.279818
0.837697
0.268256
0.837679
0.268424
0.268377
0.837666
0.268339
0.268424
0.837789
0.268300
0.837735
0.837657
0.837768
0.837755
0.268279
0.268282
0.268454
0.268372
0.837684
0.837765
0.268377
0.837691
0.837705
0.837705
0.268454
0.268365
0.837679
0.837794
0.268339
0.268261
0.837668
0.837759
0.268351
0.837790
0.268363
0.837714
0.269186
0.837766
0.268365
0.268405
0.268303
0.837679
0.837810
0.837810
0.268246
0.268426
0.268221
0.837655
0.268276
0.837778
0.268454
0.268399
0.268372
0.837807
0.268276
0.268221
0.268377
0.268397
0.268339
0.268460
0.268377
0.837785
0.268460
0.268331
0.268460
0.268357
0.268339
0.837679
0.268246
0.268399
0.268306
0.837686
0.268217
0.268331
0.837720
0.837658
0.837700
0.837758
0.268377
0.268306
0.268300
0.268370
0.268295
0.837766
0.268416
0.837704
0.837752
0.268306
0.268377
0.268265
0.837796
0.268221
0.268395
0.268408
0.837686
0.837810
0.268365
0.268256
0.837789
0.268306
0.268424
0.837810
0.268288
0.268306
0.268424
0.837721
0.268372
0.837723
0.268272
0.837656
0.837677
0.837789
0.837823
0.837810
0.268372
0.268331
0.837765
0.268306
0.837658
0.837677
0.268331
0.837709
0.837810
0.837789
0.837774
0.837735
0.268330
0.837794
0.268397
0.837740
0.268426
0.837789
0.837758
0.837714
0.268256
0.268399
0.837769
0.837728
0.268287
0.268282
0.268370
0.837681
0.837787
0.837768
0.837768
0.837708
0.837709
0.837765
0.269186
0.268265
0.268331
0.268306
0.546751
0.837796
0.837808
0.268405
0.837679
0.837792
0.837679
0.837658
0.268412
0.268408
0.837705
0.837787
0.268351
0.268372
0.268331
0.837665
0.268397
0.268331
0.268416
0.268397
0.268460
0.268259
0.268424
0.837668
0.269186
0.268377
0.837782
0.837804
0.837757
0.837790
0.268295
0.268370
0.268426
0.837668
0.837738
0.268339
0.268265
0.268288
0.268306
0.268296
0.268330
0.837812
0.837799
0.268377
0.837787
0.268399
0.268408
0.268272
0.837728
0.268279
0.647573
0.837762
0.268255
0.837787
0.268430
0.837716
0.837794
0.268331
0.837679
0.837692
0.837728
0.268377
0.837799
0.837740
0.268306
0.268331
0.268377
0.837720
0.837765
0.268460
0.268377
0.268416
0.268259
0.837679
0.837713
0.268217
0.268370
0.268306
0.268272
0.268406
0.837679
0.268259
0.268331
0.837747
0.268377
0.837701
0.268300
0.837679
0.837706
0.268303
0.297387
0.268256
0.268359
0.268265
0.268331
0.268372
0.379570
0.268397
0.268303
0.268331
0.837781
0.268397
0.837724
0.268377
0.837676
0.268377
0.268217
0.837679
0.268426
0.268370
0.268430
0.837810
0.837769
0.837714
0.268303
0.837680
0.837767
0.837732
0.297387
0.837787
0.837778
0.837800
0.837764
0.837810
0.268287
0.837755
0.268331
0.268303
0.268377
0.837767
0.837705
0.837794
0.268265
0.268287
0.268272
0.837735
0.268397
0.837749
0.837748
0.268221
0.837679
0.268412
0.268370
0.268331
0.268377
0.837810
0.268372
0.268272
0.837803
0.268265
0.268370
0.268331
0.268256
0.837776
0.837712
0.268287
0.837679
0.837808
0.268330
0.268259
0.268256
0.268331
0.837768
0.837666
0.268300
0.837799
0.837679
0.837720
0.268256
0.268306
0.268306
0.268370
0.268377
0.837772
0.268300
0.268279
0.268365
0.837705
0.268370
0.837810
0.268287
0.720280
0.837724
0.268231
0.293303
0.268370
0.837705
0.268331
0.268377
0.837801
0.268460
0.268259
0.268306
0.268300
0.837810
0.837819
0.837748
0.837700
0.268377
0.268377
0.268256
0.268276
0.268351
0.268359
0.268351
0.837810
0.837717
0.837695
0.837752
0.837810
0.268303
0.837808
0.268303
0.268287
0.837740
0.268303
0.268377
0.837751
0.837725
0.837691
0.268272
0.268306
0.837796
0.837755
0.268424
0.268231
0.268397
0.837705
0.837702
0.268255
0.837798
0.268372
0.837793
0.268370
0.268303
0.837816
0.837696
0.268282
0.268331
0.268416
0.837776
0.268331
0.268339
0.837715
0.268359
0.268397
0.268208
0.837751
0.837686
0.434939
0.268306
0.268408
0.268337
0.268377
0.268408
0.837659
0.268331
0.268460
0.268331
0.268256
0.837686
0.268331
0.268255
0.268377
0.268397
0.268357
0.837762
0.837800
0.837679
0.837765
0.268370
0.837752
0.837785
0.837679
0.268370
0.837679
0.268331
0.268430
0.268397
0.837705
0.837657
0.837468
0.268424
0.268208
0.837807
0.837701
0.837789
0.837668
0.268231
0.268256
0.837725
0.837665
0.837701
0.837810
0.268460
0.268331
0.837679
0.268397
0.837684
0.837810
0.268416
0.837810
0.268377
0.268319
0.837674
0.268377
0.268377
0.268351
0.837679
0.837738
0.268256
0.268261
0.268331
0.837748
0.268267
0.837780
0.268279
0.837680
0.268256
0.269409
0.800012
0.837805
0.837800
0.837823
0.837794
0.837741
0.837715
0.837809
0.837767
0.268331
0.837712
0.268416
0.837686
0.837787
0.837787
0.268365
0.268377
0.268330
0.837705
0.268304
0.837787
0.837679
0.837668
0.268370
0.837763
0.268221
0.268330
0.268255
0.268256
0.268306
0.268397
0.837705
0.268377
0.268372
0.837730
0.837810
0.268287
0.837787
0.268279
0.837759
0.837683
0.268377
0.268250
0.837728
0.837680
0.837705
0.268408
0.268295
0.268276
0.268295
0.837721
0.837787
0.837684
0.268399
0.268306
0.268376
0.268413
0.268314
0.837712
0.268397
0.837816
0.837701
0.268337
0.268256
0.837787
0.268221
0.268359
0.837741
0.837756
0.268370
0.268377
0.837696
0.837705
0.268300
0.268306
0.837810
0.837787
0.837803
0.837714
0.268365
0.837810
0.268306
0.268339
0.610043
0.268420
0.268426
0.268376
0.837785
0.268370
0.268278
0.837725
0.268223
0.268397
0.268460
0.837798
0.837720
0.837755
0.268397
0.379570
0.268331
0.837763
0.837759
0.268299
0.837823
0.268282
0.268377
0.268265
0.268377
0.268397
0.268361
0.268330
0.379570
0.379570
0.268276
0.837809
0.837789
0.268300
0.837738
0.268360
0.268306
0.268377
0.268397
0.837715
0.274696
0.837709
0.268331
0.268370
0.837732
0.837738
0.268295
0.268300
0.297387
0.269186
0.268377
0.268370
0.837679
0.837738
0.837765
0.837810
0.546751
0.268265
0.268426
0.837679
0.268331
0.837712
0.268370
0.837800
0.268339
0.268400
0.836640
0.268430
0.268275
0.268370
0.837800
0.268359
0.268424
0.268272
0.268397
0.268416
0.268397
0.837705
0.268331
0.268430
0.268397
0.268377
0.268256
0.268370
0.268306
0.268246
0.268231
0.268397
0.268377
0.268300
0.268288
0.837789
0.268234
0.268416
0.268408
0.268288
0.837735
0.268377
0.268377
0.268370
0.268287
0.837812
0.837685
0.268287
0.268288
0.268306
0.268351
0.837732
0.837702
0.837700
0.268282
0.268370
0.268370
0.720280
0.268370
0.268380
0.268372
0.268370
0.837787
0.268243
0.837776
0.837759
0.268306
0.268430
0.268331
0.837743
0.268306
0.837679
0.838567
0.837748
0.268408
0.837670
0.837743
0.268416
0.268288
0.837810
0.268331
0.837680
0.268288
0.268306
0.268370
0.268303
0.268339
0.268369
0.268365
0.837743
0.268424
0.268413
0.268339
0.837810
0.837742
0.837810
0.268420
0.268332
0.837679
0.268426
0.268399
0.268377
0.268339
0.268287
0.268295
0.837679
0.693908
0.268261
0.837758
0.837824
0.268276
0.268231
0.837769
0.268460
0.837796
0.837800
0.837671
0.268377
0.268359
0.837832
0.837743
0.268370
0.837679
0.268231
0.837720
0.837810
0.837793
0.268255
0.837657
0.268221
0.268359
0.837749
0.268377
0.837679
0.268337
0.837800
0.268246
0.268279
0.268282
0.837715
0.268312
0.268217
0.268397
0.837833
0.268330
0.268306
0.268408
0.837692
0.837752
0.837810
0.837674
0.837794
0.837696
0.268279
0.837679
0.837706
0.837684
0.837810
0.268300
0.837738
0.268282
0.268377
0.268246
0.268339
0.837750
0.837685
0.268272
0.837759
0.268370
0.837738
0.268370
0.837700
0.837756
0.837810
0.268331
0.837679
0.837788
0.268279
0.268295
0.268351
0.268306
0.837787
0.837787
0.268256
0.837781
0.268332
0.268331
0.837715
0.268359
0.837816
0.268300
0.837760
0.268331
0.268331
0.837691
0.837705
0.837735
0.268359
0.837712
0.268370
0.268359
0.837760
0.837679
0.837810
0.268397
0.837705
0.268256
0.268303
0.268331
0.837677
0.837796
0.268295
0.268243
0.837810
0.268359
0.837735
0.837750
0.268265
0.268420
0.837771
0.837802
0.268430
0.837810
0.268376
0.837656
0.268306
0.837800
0.268255
0.268377
0.837700
0.268370
0.837696
0.837776
0.268428
0.268408
0.837788
0.837724
0.268306
0.268408
0.268288
0.268306
0.268370
0.837679
0.268370
0.837798
0.268231
0.837803
0.268282
0.837712
0.268287
0.268272
0.268295
0.837794
0.837767
0.268331
0.268351
0.837797
0.268331
0.837657
0.268333
0.837771
0.837789
0.268416
0.268261
0.837752
0.837725
0.837735
0.837679
0.837679
0.693908
0.837679
0.268426
0.268377
0.837789
0.268330
0.268265
0.268351
0.837810
0.837731
0.837768
0.837724
0.837712
0.837679
0.268288
0.837679
0.268217
0.837800
0.268397
0.268377
0.268295
0.268256
0.268377
0.268259
0.268454
0.837702
0.268306
0.837750
0.837800
0.268300
0.268424
0.837796
0.837765
0.837701
0.837812
0.268331
0.268351
0.837800
0.837662
0.837810
0.837756
0.268319
0.268279
0.268234
0.837810
0.837810
0.268256
0.837798
0.434939
0.268408
0.268272
0.268460
0.268413
0.268397
0.268377
0.268314
0.268331
0.268377
0.837684
0.268306
0.268303
0.837810
0.268231
0.837741
0.268359
0.837705
0.837684
0.268306
0.269186
0.837677
0.297387
0.837735
0.837700
0.268397
0.837763
0.837727
0.268306
0.837668
0.837679
0.837787
0.837750
0.837679
0.837768
0.837823
0.837741
0.837793
0.837731
0.268256
0.837807
0.837657
0.268288
0.837720
0.837725
0.837679
0.268276
0.837720
0.837810
0.837741
0.268420
0.268306
0.268279
0.837721
0.837679
0.268306
0.837810
0.268376
0.268351
0.268306
0.268351
0.837810
0.837686
0.837721
0.268370
0.268397
0.837715
0.268259
0.837674
0.268282
0.837720
0.837679
0.268351
0.837705
0.837810
0.268399
0.268272
0.837662
0.268288
0.268256
0.268420
0.268256
0.837820
0.268339
0.837781
0.837743
0.268306
0.268276
0.268397
0.268256
0.268397
0.268314
0.837768
0.268288
0.837794
0.268397
0.268416
0.837691
0.268377
0.268282
0.837681
0.268330
0.800012
0.837750
0.268408
0.297387
0.268282
0.268397
0.268377
0.837809
0.268377
0.434939
0.268399
0.268295
0.268377
0.837810
0.837810
0.268231
0.268306
0.837810
0.837702
0.837783
0.837695
0.268276
0.268337
0.268306
0.268246
0.268416
0.837705
0.837679
0.837676
0.268408
0.693908
0.837677
0.268300
0.837747
0.837700
0.268377
0.268256
0.837768
0.837702
0.268330
0.268331
0.268397
0.268330
0.268282
0.837730
0.837730
0.837771
0.268276
0.837792
0.837662
0.526041
0.268416
0.569198
0.268413
0.268460
0.837755
0.268276
0.268370
0.268288
0.837771
0.837712
0.837691
0.268278
0.837720
0.837738
0.268331
0.837750
0.268303
0.837759
0.837798
0.837704
0.268306
0.837788
0.837760
0.268372
0.837727
0.268276
0.268279
0.268377
0.268282
0.268359
0.268272
0.268331
0.837735
0.837759
0.837803
0.837715
0.268259
0.837738
0.837796
0.837735
0.837787
0.268430
0.268408
0.837778
0.837735
0.268234
0.268376
0.268306
0.837705
0.268424
0.268256
0.837774
0.268303
0.837679
0.837764
0.837774
0.268331
0.293303
0.379570
0.268377
0.837810
0.268312
0.837710
0.268416
0.837778
0.837784
0.837766
0.268412
0.837774
0.268331
0.837812
0.837772
0.837810
0.837680
0.268300
0.268426
0.268426
0.837810
0.837711
0.837810
0.268267
0.268331
0.268294
0.268306
0.268306
0.837820
0.837810
0.268331
0.268337
0.268306
0.837810
0.837680
0.268331
0.268256
0.268331
0.268430
0.837810
0.837812
0.837679
0.837725
0.268377
0.800012
0.837810
0.268397
0.837765
0.837701
0.837665
0.837820
0.268397
0.268454
0.268217
0.268212
0.837798
0.268405
0.837759
0.268256
0.837801
0.268351
0.837810
0.837679
0.837771
0.837792
0.268408
0.268331
0.268376
0.837692
0.837799
0.837735
0.837762
0.837700
0.268370
0.837679
0.268426
0.837810
0.268339
0.837823
0.837679
0.268397
0.800012
0.268259
0.837763
0.837810
0.837695
0.837748
0.268331
0.268359
0.268416
0.837759
0.268370
0.837763
0.268430
0.837803
0.293303
0.268408
0.268295
0.268287
0.268426
0.268256
0.268426
0.837752
0.268420
0.837657
0.268370
0.268397
0.268265
0.268287
0.268259
0.837720
0.268276
0.268265
0.837741
0.837757
0.268377
0.763060
0.268331
0.837794
0.837750
0.837790
0.268243
0.837662
0.268231
0.837712
0.268377
0.268331
0.268295
0.268408
0.837679
0.837705
0.268306
0.268377
0.268397
0.268377
0.268405
0.268295
0.268231
0.837783
0.837691
0.268359
0.268267
0.268256
0.355834
0.268430
0.268397
0.268397
0.268359
0.268397
0.268337
0.268370
0.837710
0.837719
0.268221
0.837679
0.268399
0.268405
0.268460
0.268372
0.268272
0.268256
0.837787
0.837681
0.837719
0.837780
0.837700
0.268279
0.837794
0.268330
0.837691
0.837713
0.837708
0.837686
0.837714
0.837737
0.837787
0.837812
0.837733
0.837701
0.268208
0.268231
0.837810
0.268331
0.837750
0.837762
0.837798
0.379570
0.268256
0.837705
0.268377
0.268377
0.837670
0.268306
0.837810
0.268370
0.268377
0.268331
0.268377
0.837705
0.268351
0.837665
0.837783
0.837766
0.837737
0.268377
0.268234
0.268337
0.837705
0.837816
0.268328
0.268377
0.268246
0.268330
0.269186
0.268288
0.268306
0.268246
0.268377
0.268255
0.837832
0.837666
0.268272
0.837810
0.837654
0.837749
0.837716
0.268276
0.268288
0.268370
0.268359
0.837781
0.837720
0.837796
0.268454
0.268279
0.268300
0.268217
0.268261
0.269186
0.837716
0.268303
0.268331
0.268259
0.837810
0.837803
0.838922
0.268295
0.268272
0.268370
0.837705
0.268267
0.268424
0.837747
0.837679
0.268359
0.268259
0.268265
0.297387
0.268267
0.837662
0.268377
0.268430
0.837700
0.837820
0.837741
0.837788
0.837809
0.268272
0.837738
0.837790
0.837787
0.837762
0.837680
0.268331
0.837684
0.837680
0.268370
0.269186
0.268306
0.837759
0.268372
0.837789
0.837803
0.268221
0.268359
0.268376
0.837726
0.837705
0.837785
0.355834
0.837769
0.837766
0.268255
0.837717
0.837730
0.268369
0.837787
0.837810
0.837778
0.268306
0.268309
0.268424
0.837771
0.837732
0.268256
0.268397
0.268426
0.268217
0.268337
0.837774
0.837677
0.837798
0.837738
0.837725
0.268351
0.837738
0.837686
0.268246
0.268306
0.268357
0.837810
0.837724
0.268295
0.837699
0.837752
0.837657
0.268377
0.268282
0.837705
0.269186
0.268282
0.268288
0.269186
0.837658
0.837691
0.837810
0.268377
0.268246
0.268208
0.268430
0.268460
0.837800
0.268306
0.837833
0.268377
0.837679
0.268306
0.268370
0.268426
0.268397
0.268276
0.837810
0.837711
0.268300
0.837755
0.837738
0.268265
0.837738
0.268265
0.268397
0.837765
0.837738
0.268376
0.268351
0.268330
0.268306
0.268306
0.837789
0.837800
0.837772
0.837810
0.268309
0.837803
0.268276
0.837785
0.268424
0.837668
0.546751
0.268420
0.268306
0.837695
0.268306
0.268397
0.837680
0.837750
0.268256
0.268306
0.837766
0.268287
0.837742
0.837667
0.837759
0.268370
0.268265
0.268256
0.837665
0.268306
0.268454
0.837752
0.837701
0.268272
0.268454
0.720280
0.268282
0.268330
0.800012
0.268397
0.837679
0.268370
0.268331
0.837787
0.837704
0.268337
0.837771
0.837816
0.268306
0.837705
0.837703
0.837723
0.268306
0.268377
0.268377
0.268454
0.268365
0.434939
0.837718
0.837670
0.268272
0.268339
0.837712
0.268377
0.837679
0.837731
0.837788
0.268306
0.268230
0.837701
0.837688
0.837705
0.268397
0.268330
0.837657
0.268426
0.268377
0.837679
0.268408
0.837712
0.268416
0.268416
0.268256
0.268331
0.268255
0.837705
0.268460
0.268454
0.268303
0.837702
0.268416
0.837768
0.268300
0.837758
0.268256
0.837810
0.837792
0.837679
0.835753
0.268377
0.837800
0.268359
0.268376
0.268454
0.268430
0.268259
0.268416
0.837789
0.837813
0.268267
0.268259
0.268359
0.837768
0.268397
0.268377
0.268420
0.837752
0.268276
0.837792
0.268412
0.268295
0.837810
0.268257
0.268337
0.837792
0.268256
0.837741
0.827290
0.837705
0.268331
0.268454
0.268397
0.837798
0.268267
0.268359
0.268377
0.837810
0.268306
0.268306
0.268331
0.837679
0.268282
0.837755
0.268331
0.268331
0.268370
0.837717
0.837724
0.268370
0.268361
0.268408
0.268397
0.268306
0.268275
0.268426
0.837705
0.268359
0.268275
0.837810
0.268397
0.268377
0.268272
0.837724
0.268359
0.837816
0.268426
0.268299
0.268295
0.837705
0.268370
0.268377
0.837665
0.268370
0.837810
0.837769
0.837798
0.837679
0.268231
0.837705
0.837737
0.837810
0.837728
0.837768
0.268408
0.837803
0.268246
0.268397
0.268288
0.268276
0.268424
0.837679
0.268256
0.268330
0.268255
0.268424
0.837797
0.268405
0.837800
0.837679
0.837774
0.837800
0.837748
0.268405
0.268397
0.268231
0.837679
0.268306
0.837796
0.355834
0.268376
0.837798
0.837776
0.837738
0.268306
0.268397
0.268331
0.837765
0.268376
0.268300
0.837789
0.268272
0.837665
0.837654
0.837816
0.837679
0.268261
0.268306
0.837708
0.837704
0.837827
0.268377
0.837662
0.837738
0.837810
0.268306
0.268377
0.268265
0.268376
0.268217
0.837740
0.268357
0.268255
0.268256
0.837810
0.268300
0.268303
0.268256
0.268377
0.837810
0.268420
0.268372
0.268314
0.837749
0.837684
0.268331
0.268399
0.268426
0.268424
0.268330
0.837665
0.837755
0.837688
0.268300
0.268337
0.837810
0.837677
0.268377
0.268370
0.268454
0.268231
0.268255
0.837759
0.268359
0.268306
0.268359
0.268265
0.268365
0.268276
0.837724
0.268255
0.268288
0.837823
0.837780
0.297387
0.837780
0.837800
0.379570
0.268413
0.268300
0.837714
0.837778
0.268370
0.837776
0.268331
0.268405
0.837768
0.837758
0.837698
0.837763
0.268331
0.268426
0.837752
0.837705
0.837688
0.837727
0.268331
0.268359
0.268460
0.268331
0.268265
0.837679
0.837755
0.837752
0.268416
0.268331
0.837824
0.268295
0.837731
0.837825
0.837720
0.268377
0.268331
0.268405
0.268400
0.837679
0.268288
0.268231
0.837713
0.837750
0.268272
0.837755
0.837738
0.268295
0.268331
0.268377
0.268306
0.268306
0.268337
0.837702
0.268426
0.268331
0.837738
0.837731
0.837737
0.268246
0.268424
0.837705
0.268282
0.268365
0.268397
0.268460
0.837656
0.837787
0.268397
0.268331
0.268377
0.837789
0.837725
0.268372
0.268288
0.268430
0.800012
0.837737
0.268265
0.268372
0.837745
0.268288
0.434939
0.268397
0.837755
0.268365
0.837816
0.837701
0.268397
0.837724
0.268267
0.268377
0.837765
0.268397
0.837752
0.268282
0.837712
0.268359
0.268306
0.837776
0.268261
0.268287
0.268351
0.268231
0.837706
0.269186
0.268272
0.837743
0.837699
0.837665
0.693908
0.268370
0.268295
0.268288
0.268331
0.268331
0.268397
0.268282
0.837833
0.379570
0.268330
0.268365
0.268377
0.268430
0.268303
0.837740
0.268372
0.268337
0.837819
0.837731
0.268272
0.268400
0.268376
0.268256
0.837763
0.268397
0.268426
0.837787
0.268231
0.693908
0.837787
0.268295
0.837711
0.268377
0.268377
0.268397
0.268331
0.268416
0.268265
0.268397
0.268330
0.837659
0.837810
0.837714
0.268400
0.837749
0.268256
0.268460
0.268276
0.268312
0.268397
0.837671
0.268330
0.837745
0.837705
0.837755
0.268397
0.379570
0.693908
0.837708
0.837705
0.268408
0.268416
0.837679
0.355834
0.268306
0.268460
0.268370
0.837713
0.837732
0.268377
0.268397
0.268350
0.268339
0.268331
0.668593
0.268377
0.837679
0.837778
0.268295
0.837712
0.268370
0.837701
0.837816
0.837679
0.837781
0.837679
0.837810
0.268370
0.837823
0.837798
0.268303
0.268370
0.268337
0.268256
0.268265
0.780014
0.268377
0.837696
0.268314
0.268331
0.268259
0.837679
0.268300
0.268460
0.268408
0.268370
0.837810
0.268287
0.837726
0.268426
0.837793
0.268405
0.837679
0.837667
0.837701
0.268303
0.837720
0.837684
0.268424
0.837755
0.268365
0.837735
0.837688
0.837679
0.837684
0.837716
0.268306
0.268255
0.268257
0.268217
0.268397
0.837679
0.268430
0.268416
0.837797
0.268397
0.837717
0.837686
0.837800
0.837810
0.268331
0.268288
0.837704
0.268397
0.268365
0.837712
0.268331
0.268399
0.837685
0.268424
0.268412
0.268424
0.837668
0.837716
0.837789
0.268221
0.837789
0.268337
0.268460
0.268370
0.837679
0.837756
0.268276
0.268416
0.268331
0.268339
0.268410
0.837810
0.837662
0.268399
0.837735
0.268265
0.837703
0.268331
0.268246
0.268288
0.268272
0.268460
0.837702
0.268331
0.837762
0.837749
0.297387
0.268372
0.837680
0.268265
0.837702
0.268231
0.268426
0.268377
0.837685
0.268370
0.837704
0.269186
0.837654
0.268259
0.268413
0.268295
0.268279
0.268331
0.268331
0.837701
0.268331
0.379570
0.268314
0.268314
0.837810
0.268405
0.268337
0.268256
0.268460
0.837776
0.837712
0.268287
0.268331
0.837800
0.837800
0.837679
0.268331
0.837705
0.268339
0.837693
0.837810
0.268424
0.268221
0.268217
0.268377
0.763060
0.837675
0.268416
0.268377
0.837755
0.268217
0.837803
0.837809
0.837771
0.837657
0.268426
0.268306
0.268430
0.268351
0.268337
0.268377
0.268405
0.837696
0.268424
0.268294
0.837708
0.268377
0.269186
0.268337
0.268412
0.268370
0.837671
0.268424
0.837810
0.268306
0.837704
0.693908
0.268331
0.268333
0.268276
0.268424
0.268267
0.268306
0.268246
0.837810
0.268331
0.837824
0.268306
0.837665
0.268256
0.268408
0.268442
0.268306
0.837762
0.837712
0.837731
0.268397
0.268339
0.837812
0.837810
0.268306
0.268370
0.268370
0.837803
0.837769
0.268295
0.268370
0.269186
0.837762
0.268413
0.268306
0.837679
0.837789
0.268261
0.837796
0.268377
0.268412
0.837778
0.837727
0.268306
0.268377
0.268306
0.268265
0.837789
0.268377
0.837695
0.268424
0.268365
0.268413
0.837708
0.837809
0.268331
0.379570
0.837769
0.268256
0.837679
0.837715
0.837741
0.837662
0.268430
0.268372
0.837810
0.268377
0.268272
0.837716
0.268377
0.268295
0.268357
0.268460
0.837800
0.268408
0.268413
0.837679
0.837787
0.837774
0.268255
0.268430
0.837700
0.837794
0.268424
0.837809
0.268377
0.268259
0.837800
0.837700
0.268377
0.837738
0.268231
0.837823
0.268331
0.837721
0.268282
0.268405
0.837679
0.268246
0.837679
0.268351
0.268306
0.268314
0.268221
0.837714
0.268331
0.837787
0.268330
0.379570
0.268351
0.837768
0.268377
0.720280
0.837675
0.268426
0.268377
0.837738
0.837735
0.837721
0.837741
0.837756
0.268287
0.268376
0.268426
0.837665
0.268416
0.268314
0.268351
0.268426
0.837728
0.837666
0.837812
0.268351
0.693908
0.837810
0.837768
0.837798
0.837697
0.379570
0.268460
0.268331
0.837704
0.268408
0.268272
0.268426
0.837788
0.268365
0.837662
0.268303
0.268426
0.268306
0.837662
0.268276
0.268256
0.837832
0.837762
0.268278
0.837749
0.837789
0.268351
0.837714
0.268306
0.837709
0.268377
0.268256
0.268359
0.268331
0.268397
0.837727
0.268300
0.297387
0.837787
0.268430
0.268267
0.268282
0.837738
0.268359
0.837695
0.838023
0.268246
0.268377
0.268231
0.268397
0.268330
0.268377
0.837802
0.837724
0.837810
0.268370
0.837700
0.837743
0.268306
0.837666
0.837810
0.837701
0.837755
0.268295
0.837823
0.837668
0.837705
0.268416
0.268306
0.268331
0.268331
0.837800
0.268351
0.268359
0.837810
0.800012
0.268420
0.268376
0.837807
0.268397
0.268424
0.268330
0.268426
0.268339
0.268397
0.837731
0.837663
0.268410
0.268370
0.837810
0.269438
0.837655
0.837810
0.268397
0.837796
0.268377
0.268288
0.837735
0.268416
0.837719
0.569198
0.837765
0.837787
0.837755
0.268314
0.837802
0.837691
0.837757
0.268397
0.268377
0.268397
0.268351
0.837796
0.837799
0.297387
0.268331
0.268412
0.837781
0.268376
0.837758
0.837769
0.837727
0.268337
0.268314
0.268377
0.837783
0.837679
0.837679
0.837827
0.268397
0.268234
0.268377
0.268333
0.268272
0.837825
0.268424
0.269186
0.268306
0.837662
0.268372
0.837721
0.837800
0.268306
0.837782
0.837731
0.837800
0.269186
0.837810
0.837810
0.837789
0.268255
0.837716
0.268370
0.837735
0.268460
0.268331
0.837743
0.268460
0.268377
0.837771
0.837810
0.268276
0.268255
0.268261
0.837658
0.837771
0.268282
0.268300
0.268420
0.268306
0.268365
0.268397
0.268339
0.837701
0.268221
0.268377
0.837823
0.268272
0.268295
0.268426
0.268287
0.268377
0.837800
0.268377
0.268408
0.837696
0.268272
0.837700
0.268397
0.837801
0.837798
0.837803
0.837756
0.837787
0.837758
0.837789
0.837755
0.837756
0.837776
0.268331
0.268256
0.837710
0.268377
0.268377
0.837817
0.837815
0.268377
0.268377
0.268331
0.268377
0.268331
0.268255
0.837700
0.837656
0.837737
0.268295
0.268372
0.268377
0.268365
0.269409
0.268377
0.268265
