0.837218
0.270450
0.271231
0.837161
0.706287
0.837231
0.837234
0.837149
0.392654
0.270497
0.270450
0.837121
0.270450
0.270557
0.270499
0.270399
0.837161
0.837124
0.270460
0.837222
0.270310
0.837274
0.837279
0.270363
0.837143
0.837161
0.270330
0.837225
0.270438
0.270320
0.270470
0.837271
0.270497
0.270447
0.270450
0.837168
0.837267
0.837187
0.837222
0.837249
0.270450
0.270447
0.270448
0.270551
0.270497
0.270318
0.270412
0.837243
0.837138
0.270426
0.270450
0.837154
0.270557
0.270338
0.837250
0.270447
0.270310
0.270538
0.837148
0.837165
0.837158
0.270467
0.837222
0.270536
0.270360
0.270320
0.837265
0.270463
0.837241
0.270536
0.270370
0.270438
0.270499
0.270399
0.270497
0.270434
0.837276
0.270310
0.837237
0.270398
0.270455
0.270448
0.837274
0.270497
0.270447
0.837110
0.270497
0.270438
0.837161
0.270557
0.270536
0.270318
0.358938
0.270398
0.837249
0.837190
0.837174
0.392654
0.270497
0.270438
0.837264
0.837111
0.837194
0.837185
0.270513
0.837204
0.837268
0.270392
0.270556
0.270536
0.270513
0.837110
0.270497
0.270438
0.837222
0.837249
0.837264
0.837228
0.270513
0.270450
0.270475
0.270496
0.837168
0.270447
0.837202
0.270497
0.837222
0.837192
0.837222
0.270499
0.837124
0.270447
0.270318
0.270497
0.270374
0.270447
0.837178
0.270430
0.270455
0.270519
0.270438
0.270499
0.270497
0.837274
0.837194
0.837136
0.837216
0.270513
0.396862
0.270316
0.270392
0.837161
0.837170
0.270519
0.837214
0.270519
0.837271
0.837168
0.270310
0.270363
0.837242
0.270467
0.270450
0.270412
0.837192
0.270434
0.837160
0.270497
0.270463
0.270426
0.837278
0.837168
0.837114
0.837266
0.270557
0.270450
0.837249
0.270398
0.837161
0.837161
0.270447
0.270467
0.396862
0.270497
0.270460
0.270475
0.270458
0.270542
0.270460
0.270310
0.270450
0.270542
0.837178
0.270470
0.270560
0.270381
0.837141
0.270388
0.837209
0.837151
0.270447
0.837249
0.270463
0.837202
0.837138
0.837178
0.270320
0.837193
0.270431
0.270513
0.270519
0.837161
0.270423
0.270320
0.837195
0.270399
0.270447
0.270475
0.270519
0.270496
0.837253
0.270399
0.270450
0.837274
0.837149
0.837267
0.270496
0.837265
0.270320
0.270467
0.837135
0.270399
0.837222
0.747268
0.270392
0.270450
0.270447
0.837170
0.270557
0.270447
0.837236
0.270370
0.837184
0.837187
0.270467
0.270513
0.837161
0.837255
0.837255
0.837231
0.270399
0.837256
0.270450
0.374611
0.270396
0.270499
0.837225
0.270513
0.270316
0.270467
0.270557
0.270497
0.270310
0.270426
0.837161
0.837118
0.837216
0.270438
0.270557
0.270365
0.837274
0.270438
0.270513
0.270557
0.837244
0.270310
0.837217
0.270557
0.270438
0.837146
0.270463
0.271961
0.270370
0.837222
0.270365
0.837160
0.270538
0.837127
0.837204
0.270360
0.837178
0.837151
0.396862
0.270467
0.837149
0.837242
0.270497
0.270447
0.837161
0.837149
0.270392
0.837110
0.837274
0.837113
0.837176
0.270467
0.837274
0.396862
0.270450
0.270475
0.270318
0.270447
0.270448
0.837189
0.837216
0.837242
0.837244
0.837222
0.270460
0.837180
0.837268
0.270447
0.837121
0.837175
0.270348
0.270519
0.837161
0.837113
0.270513
0.270460
0.270542
0.271961
0.837189
0.270447
0.270447
0.837222
0.837222
0.837258
0.837202
0.270448
0.837186
0.270450
0.837178
0.270447
0.270370
0.837228
0.837151
0.270448
0.270399
0.270360
0.270316
0.837138
0.270513
0.270447
0.837168
0.270370
0.837151
0.837190
0.270475
0.837225
0.837263
0.270318
0.837242
0.270392
0.270450
0.270407
0.837161
0.270560
0.837240
0.837121
0.270453
0.837161
0.837149
0.837222
0.270542
0.837239
0.837249
0.270365
0.837229
0.270310
0.837268
0.837138
0.270447
0.837222
0.270434
0.270542
0.270318
0.270348
0.837161
0.270460
0.270538
0.270499
0.270447
0.837169
0.837218
0.270450
0.837241
0.270476
0.837194
0.837187
0.837157
0.837161
0.837183
0.270338
0.837167
0.270455
0.837214
0.837121
0.837206
0.270374
0.270460
0.270551
0.837151
0.837190
0.270447
0.396862
0.270458
0.837141
0.270338
0.837222
0.270476
0.837203
0.270542
0.270551
0.706287
0.837222
0.358938
0.837151
0.837161
0.270450
0.270557
0.837162
0.271961
0.270551
0.270463
0.837143
0.837264
0.270463
0.837246
0.270447
0.837216
0.270458
0.396862
0.270447
0.270540
0.270513
0.270458
0.270316
0.837125
0.270360
0.270316
0.270310
0.837168
0.837222
0.837256
0.837214
0.735898
0.837241
0.837222
0.270455
0.270447
0.270557
0.837268
0.270513
0.837121
0.270450
0.270557
0.837112
0.837242
0.837222
0.837161
0.270431
0.837250
0.837265
0.270476
0.270499
0.270316
0.837243
0.837148
0.837262
0.837127
0.270557
0.270460
0.837219
0.837183
0.270538
0.837250
0.837276
0.270497
0.837121
0.270450
0.270497
0.270447
0.837222
0.270450
0.270438
0.294487
0.837228
0.837121
0.837240
0.370925
0.270407
0.270450
0.837256
0.837222
0.837161
0.270513
0.270450
0.270450
0.270450
0.706287
0.837110
0.270392
0.837236
0.270407
0.270497
0.270450
0.837191
0.706287
0.837121
0.270399
0.271961
0.837249
0.270365
0.837192
0.270467
0.837151
0.270363
0.332679
0.270399
0.837211
0.270398
0.272282
0.270460
0.270463
0.270455
0.270348
0.270363
0.837151
0.270458
0.270431
0.270557
0.837113
0.270513
0.270398
0.270513
0.837136
0.837146
0.270438
0.270467
0.270450
0.837222
0.837264
0.837258
0.270499
0.837206
0.837149
0.270310
0.837168
0.270450
0.270392
0.837138
0.837161
0.270450
0.270455
0.270557
0.837231
0.837222
0.837209
0.270463
0.270320
0.837192
0.270476
0.837156
0.837111
0.270499
0.837241
0.837151
0.270412
0.270458
0.837109
0.837223
0.706287
0.837176
0.392654
0.837263
0.370925
0.837203
0.270447
0.837276
0.270450
0.837271
0.837214
0.270450
0.270450
0.270497
0.270360
0.837161
0.837113
0.270470
0.837271
0.837194
0.270499
0.837161
0.270557
0.270538
0.270374
0.270557
0.837231
0.270394
0.270372
0.837223
0.837193
0.837121
0.270426
0.270447
0.270370
0.837127
0.837274
0.837113
0.270497
0.270557
0.270513
0.837161
0.270455
0.837222
0.270450
0.270470
0.837133
0.837149
0.837204
0.270450
0.837203
0.706679
0.270434
0.837143
0.270496
0.270348
0.837226
0.270447
0.837161
0.270447
0.270513
0.270557
0.837111
0.837274
0.271961
0.270318
0.270348
0.837222
0.837121
0.270476
0.837175
0.706679
0.396862
0.270363
0.837121
0.270392
0.837151
0.270470
0.837110
0.837154
0.837247
0.837136
0.272282
0.270399
0.270476
0.837161
0.270497
0.837202
0.270447
0.837240
0.270475
0.270434
0.837124
0.837214
0.270557
0.270513
0.270450
0.837127
0.270450
0.270513
0.837111
0.270450
0.270513
0.837128
0.837223
0.270467
0.270447
0.270363
0.270458
0.714667
0.837121
0.270365
0.270320
0.837192
0.270497
0.688350
0.270316
0.837224
0.270467
0.837204
0.270320
0.270513
0.270433
0.837222
0.270412
0.270386
0.270538
0.270513
0.837264
0.270430
0.270431
0.270497
0.270399
0.837168
0.837268
0.270467
0.270450
0.837203
0.270463
0.837121
0.837175
0.837238
0.270450
0.837233
0.837149
0.270499
0.270497
0.837262
0.270497
0.837193
0.837242
0.837258
0.837148
0.837254
0.270433
0.837188
0.270450
0.270398
0.837189
0.837169
0.270460
0.837213
0.270557
0.270450
0.837187
0.837161
0.270458
0.270431
0.270447
0.837138
0.837161
0.837121
0.270513
0.270399
0.270360
0.270438
0.837127
0.837121
0.270438
0.270447
0.270392
0.270470
0.837225
0.270320
0.270450
0.270542
0.270460
0.837256
0.837214
0.270348
0.270348
0.837222
0.837108
0.837274
0.270450
0.270320
0.270557
0.837251
0.270447
0.270374
0.837175
0.270438
0.837240
0.270348
0.270467
0.837118
0.837268
0.270399
0.270551
0.270392
0.270447
0.270557
0.270542
0.270455
0.270447
0.270447
0.270467
0.270497
0.270475
0.837193
0.270431
0.270470
0.837222
0.270513
0.837121
0.270450
0.837138
0.837152
0.270398
0.837238
0.270447
0.270476
0.837175
0.837157
0.837158
0.270497
0.706287
0.270330
0.837113
0.837161
0.837227
0.270348
0.837149
0.837108
0.837262
0.270407
0.837263
0.270476
0.837280
0.270455
0.270431
0.837157
0.270447
0.837138
0.837114
0.270513
0.837222
0.837222
0.270458
0.270557
0.270463
0.270403
0.270412
0.837193
0.270497
0.270557
0.270450
0.270463
0.837222
0.270467
0.837167
0.270513
0.837118
0.837149
0.270538
0.270348
0.837229
0.270450
0.270463
0.837242
0.270438
0.837249
0.837124
0.270542
0.270557
0.270363
0.270499
0.270557
0.837199
0.270310
0.270513
0.837125
0.270399
0.837227
0.837193
0.837169
0.837122
0.837224
0.270374
0.270557
0.837118
0.837156
0.837243
0.270426
0.837133
0.270497
0.837242
0.370925
0.270316
0.837268
0.837169
0.837222
0.270447
0.270431
0.837203
0.837193
0.837225
0.270412
0.270557
0.270460
0.837209
0.837156
0.837271
0.270438
0.837161
0.270447
0.837161
0.270348
0.270392
0.838112
0.837258
0.270394
0.837231
0.270318
0.270447
0.270556
0.270496
0.270426
0.270398
0.706287
0.270450
0.270434
0.268284
0.270398
0.837241
0.270497
0.837146
0.837109
0.270476
0.270450
0.270536
0.837161
0.270513
0.837266
0.270536
0.270450
0.270310
0.270438
0.837188
0.270370
0.270557
0.837274
0.835448
0.270320
0.837161
0.270423
0.270519
0.837242
0.270370
0.837242
0.270447
0.270447
0.270398
0.270513
0.837168
0.837238
0.271961
0.270538
0.837172
0.837121
0.270310
0.270540
0.270348
0.837173
0.270467
0.837161
0.837162
0.270538
0.837155
0.837121
0.837149
0.837156
0.837110
0.837110
0.837182
0.270398
0.270399
0.837121
0.837121
0.270455
0.270463
0.837251
0.837151
0.837133
0.270310
0.837204
0.270431
0.270538
0.270473
0.706679
0.270542
0.270460
0.270412
0.270374
0.270348
0.396862
0.270450
0.270497
0.837124
0.837121
0.270392
0.270447
0.706679
0.270450
0.270467
0.837136
0.837240
0.270370
0.270316
0.837161
0.270460
0.837172
0.396862
0.270463
0.837204
0.270399
0.272282
0.837226
0.270338
0.837249
0.270447
0.270496
0.270503
0.837162
0.270365
0.270447
0.837124
0.837222
0.837154
0.270438
0.270455
0.270447
0.270431
0.837175
0.837265
0.270399
0.270513
0.837159
0.270316
0.837161
0.270363
0.837261
0.270467
0.270348
0.837161
0.837247
0.270455
0.837247
0.837168
0.837176
0.270430
0.270463
0.270476
0.270447
0.837151
0.837109
0.270450
0.270455
0.270316
0.270402
0.270363
0.270438
0.837255
0.270513
0.837161
0.837121
0.270519
0.837236
0.270540
0.837222
0.270348
0.270463
0.270450
0.270458
0.837241
0.837188
0.837252
0.270450
0.270438
0.270450
0.270407
0.271961
0.270398
0.270447
0.837258
0.270434
0.837160
0.270438
0.270551
0.837172
0.704937
0.358938
0.270467
0.270310
0.270455
0.270447
0.270430
0.837268
0.837143
0.270370
0.837249
0.837142
0.270513
0.270460
0.837228
0.837204
0.837204
0.837193
0.270508
0.270316
0.270450
0.270318
0.837167
0.270399
0.837117
0.837222
0.270450
0.837121
0.270538
0.270497
0.270497
0.270499
0.396862
0.270460
0.270447
0.837172
0.837266
0.270316
0.837236
0.270460
0.270557
0.270504
0.270330
0.837216
0.270348
0.837222
0.270450
0.270407
0.837274
0.837274
0.270519
0.270447
0.837227
0.270447
0.271231
0.270363
0.837242
0.396862
0.837127
0.270540
0.270463
0.270513
0.270476
0.837230
0.837216
0.837251
0.270463
0.270538
0.270455
0.837209
0.837183
0.837222
0.270321
0.837218
0.270381
0.270496
0.837133
0.837262
0.270438
0.270423
0.837225
0.837214
0.837222
0.270499
0.837222
0.270519
0.270496
0.270320
0.270450
0.270447
0.837213
0.270398
0.837222
0.270431
0.270497
0.270460
0.837174
0.270476
0.270447
0.837188
0.837121
0.270538
0.270448
0.837211
0.837161
0.270513
0.837169
0.837176
0.837192
0.837154
0.837222
0.270434
0.837255
0.837133
0.270467
0.837274
0.270460
0.837122
0.270316
0.837156
0.270399
0.270438
0.270320
0.270318
0.270399
0.270496
0.837236
0.837222
0.270430
0.270431
0.837271
0.837157
0.270557
0.837276
0.837133
0.270348
0.294487
0.270497
0.837149
0.704937
0.837161
0.270447
0.270318
0.837170
0.837159
0.837148
0.270438
0.837192
0.270360
0.270426
0.837161
0.837254
0.270450
0.270363
0.270450
0.270363
0.837178
0.270360
0.270450
0.270316
0.837167
0.270450
0.837138
0.270519
0.270467
0.270399
0.837111
0.837216
0.837138
0.837226
0.270538
0.270318
0.270447
0.837133
0.837274
0.270316
0.270538
0.270392
0.270560
0.270497
0.270447
0.837161
0.270434
0.270450
0.837224
0.837161
0.270450
0.270450
0.270360
0.837222
0.270447
0.837222
0.270310
0.837218
0.270426
0.270370
0.837125
0.270455
0.270423
0.270557
0.270447
0.270447
0.270447
0.270447
0.270460
0.837176
0.270513
0.837249
0.837241
0.270463
0.837121
0.270316
0.837238
0.270318
0.270557
0.837160
0.837161
0.270447
0.270365
0.271231
0.270450
0.270412
0.294487
0.837219
0.837252
0.270450
0.837256
0.270447
0.837149
0.270374
0.270450
0.270467
0.837240
0.270450
0.270318
0.837161
0.837238
0.837161
0.837138
0.270447
0.270450
0.270513
0.837278
0.270359
0.270519
0.396862
0.270513
0.837121
0.837138
0.396862
0.837230
0.270348
0.837216
0.270386
0.270450
0.837195
0.837222
0.837161
0.709968
0.270476
0.270450
0.270476
0.270394
0.270363
0.837121
0.837252
0.837161
0.837161
0.270399
0.270460
0.271961
0.837237
0.392654
0.837271
0.270399
0.837230
0.270538
0.837187
0.837263
0.837160
0.270499
0.270365
0.837227
0.837227
0.270447
0.270499
0.270497
0.837151
0.837171
0.270467
0.837151
0.270499
0.837222
0.837136
0.837275
0.837161
0.270310
0.270557
0.270450
0.270438
0.270450
0.270431
0.270497
0.270348
0.837243
0.270496
0.270450
0.270560
0.837276
0.837161
0.270447
0.270470
0.270447
0.837211
0.837225
0.270475
0.270557
0.837161
0.837234
0.837259
0.270463
0.270365
0.270412
0.270399
0.396862
0.837121
0.270497
0.837151
0.837133
0.837280
0.837170
0.270316
0.270447
0.270434
0.270434
0.270513
0.837253
0.270348
0.270316
0.270476
0.837232
0.270557
0.270460
0.837168
0.837161
0.270551
0.270450
0.837258
0.837176
0.837227
0.837242
0.837151
0.270365
0.270450
0.270374
0.837111
0.837151
0.270438
0.270460
0.270519
0.837149
0.270447
0.270542
0.837161
0.270551
0.270447
0.270320
0.270318
0.270399
0.270316
0.837222
0.837160
0.270450
0.270513
0.837240
0.270431
0.837222
0.270363
0.294487
0.837276
0.837242
0.837214
0.270320
0.837121
0.706679
0.837257
0.837252
0.270455
0.270348
0.270496
0.837134
0.837216
0.837274
0.271231
0.270450
0.837161
0.837227
0.837246
0.270392
0.270460
0.271961
0.270430
0.837124
0.837218
0.270538
0.270450
0.270447
0.837126
0.270310
0.270450
0.270398
0.270455
0.270320
0.270557
0.270392
0.270426
0.270363
0.270460
0.270305
0.270556
0.837108
0.270538
0.837235
0.837218
0.704937
0.270431
0.837160
0.837214
0.706679
0.270540
0.837194
0.270407
0.270476
0.270458
0.270318
0.837236
0.837256
0.270438
0.270447
0.270558
0.837170
0.706679
0.270423
0.270557
0.270463
0.837278
0.270538
0.837161
0.837189
0.837161
0.837118
0.270497
0.837184
0.270392
0.837246
0.270431
0.270519
0.270497
0.270450
0.270370
0.270476
0.270310
0.837232
0.270557
0.270399
0.270513
0.837193
0.270431
0.837161
0.270447
0.270536
0.270467
0.270450
0.837255
0.270519
0.837252
0.837168
0.270450
0.270318
0.837225
0.270513
0.270318
0.332679
0.270447
0.837189
0.270426
0.837161
0.837161
0.270450
0.270399
0.837122
0.837121
0.271231
0.270450
0.270519
0.837161
0.837121
0.838189
0.837176
0.837154
0.837143
0.270434
0.837172
0.270497
0.837161
0.270430
0.706679
0.270360
0.837274
0.270447
0.837168
0.837274
0.837184
0.837184
0.270450
0.270399
0.270316
0.837259
0.270513
0.270470
0.837236
0.837124
0.837247
0.837121
0.837161
0.837155
0.837140
0.294487
0.270542
0.837278
0.837190
0.396862
0.837172
0.837249
0.270450
0.270499
0.270320
0.270492
0.706287
0.270450
0.837243
0.837144
0.270450
0.270438
0.837173
0.837222
0.270431
0.837222
0.270374
0.270450
0.270438
0.270496
0.270447
0.837217
0.837151
0.837125
0.837241
0.837144
0.270412
0.837149
0.837243
0.837161
0.270450
0.837222
0.270455
0.837187
0.270447
0.837222
0.837121
0.837149
0.837250
0.270551
0.270348
0.270448
0.270497
0.837171
0.270348
0.270430
0.837121
0.837279
0.270538
0.270470
0.270513
0.270412
0.270318
0.837161
0.270476
0.837138
0.270447
0.270363
0.270450
0.847859
0.270538
0.270557
0.270374
0.270497
0.837236
0.270467
0.837259
0.837111
0.837159
0.837241
0.837161
0.270460
0.837126
0.837154
0.837136
0.837219
0.270513
0.270557
0.837274
0.270438
0.837222
0.837178
0.270438
0.270370
0.270557
0.270431
0.837169
0.837259
0.270557
0.837190
0.837202
0.706679
0.270450
0.270557
0.837190
0.270438
0.396862
0.837155
0.706679
0.706679
0.270544
0.270450
0.270475
0.270513
0.270320
0.270467
0.270497
0.270557
0.270497
0.837146
0.837222
0.270360
0.837241
0.270499
0.270423
0.270320
0.270538
0.837316
0.270450
0.270431
0.837168
0.837217
0.837111
0.270497
0.837199
0.270467
0.837121
0.837256
0.270460
0.837133
0.270412
0.270438
0.837193
0.270370
0.837151
0.270497
0.270431
0.270467
0.270557
0.837161
0.270434
0.837193
0.270473
0.837264
0.270438
0.270536
0.270540
0.837247
0.837188
0.270557
0.270476
0.837156
0.270430
0.837222
0.270438
0.270476
0.270450
0.270450
0.837267
0.837205
0.837123
0.837167
0.270557
0.270447
0.837124
0.270557
0.270463
0.270557
0.837222
0.270557
0.837231
0.837193
0.837280
0.270399
0.837218
0.837193
0.270447
0.270450
0.837204
0.270542
0.270399
0.270431
0.270450
0.270450
0.837162
0.270399
0.270438
0.837265
0.837127
0.837204
0.837123
0.837274
0.837182
0.270557
0.270365
0.837161
0.270360
0.270540
0.270320
0.837266
0.837142
0.270476
0.837161
0.837222
0.270497
0.837168
0.837249
0.270426
0.837193
0.270499
0.270497
0.837154
0.837280
0.837224
0.270455
0.270499
0.837139
0.837111
0.837159
0.270330
0.270499
0.837274
0.837128
0.270472
0.270450
0.270318
0.837161
0.837175
0.837222
0.837247
0.270431
0.837136
0.837272
0.270320
0.837223
0.270434
0.837159
0.837259
0.837236
0.270450
0.270497
0.837189
0.270438
0.271231
0.837278
0.837151
0.837121
0.270450
0.837247
0.270476
0.270513
0.270450
0.270499
0.837222
0.270438
0.270450
0.270557
0.837202
0.837209
0.270438
0.270450
0.837178
0.837226
0.270398
0.837124
0.837161
0.837149
0.837161
0.837264
0.270434
0.837280
0.837161
0.270431
0.837121
0.837124
0.270431
0.837258
0.837121
0.270557
0.270450
0.392654
0.270448
0.837216
0.837140
0.837107
0.837203
0.270365
0.270450
0.837188
0.270557
0.837125
0.270447
0.270450
0.270450
0.837222
0.837157
0.270310
0.837161
0.837251
0.270447
0.837136
0.837146
0.837161
0.270316
0.837108
0.837142
0.270434
0.837219
0.837167
0.837146
0.837217
0.837133
0.837125
0.837228
0.837152
0.270447
0.837228
0.270399
0.837252
0.270363
0.837263
0.270365
0.837275
0.270399
0.270499
0.837128
0.837262
0.270447
0.837161
0.270399
0.270458
0.837149
0.837186
0.270363
0.270316
0.270557
0.270460
0.270447
0.270496
0.837158
0.837161
0.270463
0.270453
0.837143
0.270532
0.270438
0.270447
0.270360
0.837149
0.270540
0.837138
0.270434
0.270396
0.837149
0.270467
0.270467
0.837161
0.270475
0.396862
0.837276
0.837222
0.270365
0.837161
0.270450
0.837222
0.837151
0.837149
0.837187
0.270447
0.837222
0.270460
0.270463
0.270447
0.837250
0.837130
0.270450
0.270438
0.837158
0.837121
0.270542
0.270499
0.837149
0.270412
0.837118
0.837154
0.837205
0.271961
0.270407
0.837141
0.270519
0.270431
0.837213
0.270363
0.270438
0.270557
0.270475
0.270447
0.270463
0.837189
0.270448
0.837156
0.270513
0.837222
0.837222
0.270447
0.837161
0.270530
0.270450
0.837230
0.270438
0.270450
0.270363
0.837149
0.270399
0.834393
0.270450
0.270475
0.837138
0.270447
0.837162
0.270473
0.270431
0.837247
0.837199
0.270540
0.270538
0.837259
0.837156
0.270463
0.837140
0.837237
0.837275
0.270447
0.837139
0.270513
0.837267
0.837204
0.837178
0.270450
0.837172
0.270434
0.270399
0.837252
0.837222
0.837161
0.270497
0.270381
0.270447
0.837274
0.270370
0.270370
0.837222
0.294487
0.270431
0.837222
0.837228
0.837279
0.837151
0.837268
0.837266
0.837236
0.837272
0.270450
0.270497
0.837222
0.837141
0.270463
0.270447
0.270447
0.270557
0.270475
0.837211
0.270496
0.270463
0.270426
0.270450
0.270447
0.837276
0.837126
0.837181
0.835448
0.270499
0.270370
0.837175
0.837161
0.837274
0.271231
0.270447
0.837172
0.837154
0.837165
0.837216
0.270447
0.270398
0.837121
0.270467
0.272282
0.837193
0.270426
0.837130
0.270557
0.270475
0.270513
0.270557
0.837274
0.837121
0.837274
0.270513
0.270399
0.837233
0.837187
0.837126
0.837256
0.270499
0.270560
0.270475
0.837256
0.837230
0.270318
0.837276
0.270513
0.270538
0.270363
0.837108
0.270370
0.270513
0.270467
0.270497
0.270497
0.837274
0.270560
0.270499
0.270467
0.270497
0.270447
0.837125
0.837230
0.270430
0.270551
0.270448
0.270399
0.837267
0.270320
0.270450
0.396862
0.270447
0.706287
0.837262
0.270447
0.270557
0.837222
0.837222
0.837241
0.270438
0.678445
0.837276
0.837265
0.837275
0.270497
0.270497
0.270557
0.270431
0.837214
0.837130
0.837161
0.270497
0.270540
0.270513
0.270447
0.837121
0.270447
0.270316
0.837154
0.837225
0.837278
0.270463
0.270513
0.270430
0.837161
0.270497
0.837154
0.270316
0.270447
0.837184
0.270438
0.837241
0.270476
0.807318
0.270497
0.270320
0.270447
0.270398
0.270450
0.270430
0.270460
0.837268
0.837161
0.270447
0.837161
0.837266
0.270519
0.270399
0.837214
0.270467
0.837155
0.837161
0.270467
0.270447
0.270499
0.270445
0.270434
0.270558
0.270467
0.837216
0.270431
0.270557
0.837231
0.270455
0.270551
0.270513
0.837222
0.270557
0.837262
0.270538
0.270438
0.270316
0.272282
0.837161
0.837158
0.270438
0.270431
0.837278
0.270398
0.270412
0.270557
0.837151
0.837175
0.271231
0.270407
0.270438
0.270476
0.270450
0.270447
0.837130
0.837263
0.270496
0.270560
0.837193
0.837219
0.837121
0.270551
0.270450
0.837206
0.837242
0.837149
0.270497
0.396862
0.837238
0.270557
0.837243
0.270372
0.270426
0.270447
0.837266
0.837135
0.270497
0.270467
0.837240
0.837222
0.270499
0.270557
0.837149
0.837257
0.270412
0.270434
0.837158
0.270557
0.837161
0.270503
0.271231
0.270434
0.837186
0.837222
0.270455
0.837146
0.837108
0.706679
0.270450
0.837161
0.270316
0.837224
0.837271
0.837242
0.837159
0.270431
0.837249
0.270370
0.270538
0.837181
0.270460
0.270538
0.270363
0.270320
0.270450
0.837241
0.837151
0.270450
0.270310
0.837161
0.270450
0.270310
0.837223
0.270398
0.270447
0.270497
0.837175
0.747268
0.270547
0.837205
0.270455
0.270560
0.837262
0.270370
0.837226
0.271231
0.837241
0.270434
0.837135
0.270438
0.270447
0.837225
0.270513
0.837156
0.270455
0.837221
0.837241
0.837141
0.837241
0.270370
0.837168
0.270447
0.270399
0.270532
0.669665
0.837170
0.837242
0.270450
0.837143
0.270447
0.270423
0.837222
0.706679
0.837222
0.837162
0.270450
0.837157
0.837228
0.270450
0.270438
0.837222
0.270470
0.837222
0.270538
0.837225
0.837255
0.270557
0.837109
0.270513
0.837121
0.270450
0.837157
0.837255
0.837188
0.270398
0.270447
0.837222
0.270310
0.837224
0.270363
0.270513
0.837188
0.270447
0.270460
0.270497
0.270540
0.270316
0.270538
0.837161
0.270455
0.270497
0.270447
0.837222
0.837189
0.270513
0.270450
0.270447
0.837222
0.270431
0.270423
0.270475
0.270519
0.837222
0.837246
0.270557
0.837222
0.270447
0.270448
0.837121
0.270430
0.270538
0.837161
0.835448
0.837226
0.837250
0.270399
0.270467
0.837189
0.270513
0.270475
0.270431
0.270447
0.271231
0.837198
0.270470
0.270447
0.270558
0.270499
0.270397
0.837162
0.837222
0.270497
0.270496
0.837195
0.837149
0.270497
0.270431
0.837154
0.270398
0.837158
0.837127
0.270497
0.270476
0.837280
0.270450
0.270374
0.270365
0.837258
0.270455
0.837216
0.837121
0.837263
0.270450
0.270551
0.837161
0.837258
0.837226
0.837274
0.270320
0.837271
0.270398
0.837223
0.837193
0.837222
0.270348
0.837189
0.837151
0.270557
0.270557
0.270560
0.837230
0.270318
0.271961
0.332679
0.837241
0.270407
0.270557
0.837175
0.270360
0.837172
0.270497
0.270560
0.270394
0.270467
0.270447
0.706287
0.837204
0.270538
0.837161
0.270496
0.837161
0.270542
0.837161
0.837274
0.270310
0.837250
0.270450
0.270412
0.837266
0.837266
0.270497
0.270447
0.837278
0.837186
0.270557
0.837240
0.270557
0.270557
0.837247
0.837175
0.837244
0.270476
0.837274
0.837141
0.837209
0.837267
0.837112
0.270447
0.270513
0.270476
0.270447
0.270310
0.837252
0.837241
0.837189
0.270463
0.270365
0.270513
0.270450
0.837182
0.270540
0.837161
0.270316
0.270519
0.428193
0.270365
0.270448
0.270431
0.837111
0.270430
0.270513
0.270365
0.270476
0.270513
0.270363
0.270447
0.270360
0.837199
0.837133
0.270431
0.270497
0.837187
0.837227
0.837238
0.270458
0.837118
0.837232
0.837161
0.837156
0.270499
0.270310
0.835448
0.270438
0.270551
0.837121
0.270363
0.837161
0.270434
0.270475
0.837225
0.270450
0.270447
0.837241
0.270447
0.270499
0.270434
0.837194
0.837149
0.270463
0.270450
0.270557
0.270392
0.270450
0.837156
0.396862
0.270536
0.270399
0.837222
0.837136
0.837271
0.270398
0.270370
0.837278
0.837274
0.270320
0.837222
0.270316
0.837136
0.270447
0.837179
0.837156
0.270386
0.270450
0.270458
0.837161
0.270447
0.270463
0.837275
0.837149
0.270513
0.270438
0.270438
0.837240
0.837111
0.837282
0.837188
0.837138
0.837183
0.270476
0.837175
0.837275
0.270316
0.270458
0.837172
0.270348
0.837264
0.270475
0.270450
0.837195
0.837249
0.835448
0.837235
0.270450
0.396862
0.837192
0.270399
0.837222
0.270538
0.270310
0.270398
0.837121
0.837256
0.270519
0.271961
0.837241
0.837256
0.270450
0.837161
0.270467
0.270497
0.270499
0.270476
0.270450
0.270551
0.332679
0.270403
0.837121
0.837156
0.270475
0.270475
0.837141
0.270360
0.837161
0.270455
0.837161
0.270560
0.270316
0.837118
0.837268
0.270447
0.270438
0.270450
0.270399
0.270499
0.270557
0.837280
0.270450
0.837222
0.270467
0.270497
0.837268
0.837121
0.270497
0.578550
0.270557
0.837156
0.270450
0.271961
0.837222
0.270447
0.837233
0.270476
0.270460
0.270399
0.270467
0.270434
0.270447
0.837222
0.837222
0.270450
0.270447
0.837222
0.270542
0.837282
0.270447
0.837110
0.270450
0.270450
0.837169
0.837149
0.835448
0.706679
0.270360
0.837121
0.837168
0.270519
0.270513
0.270438
0.270473
0.270557
0.837161
0.270513
0.837225
0.270310
0.271231
0.270513
0.370925
0.837165
0.270460
0.270392
0.837236
0.837217
0.837222
0.837189
0.270519
0.837149
0.270426
0.837170
0.270450
0.837213
0.270433
0.270348
0.837266
0.270499
0.270348
0.270497
0.270455
0.370925
0.270394
0.837251
0.837149
0.270450
0.837162
0.270513
0.837222
0.270463
0.270447
0.837135
0.270370
0.270438
0.837161
0.837190
0.270463
0.270316
0.270467
0.837121
0.270538
0.270365
0.270519
0.270538
0.270497
0.270450
0.270519
0.271961
0.270431
0.837240
0.837240
0.837161
0.270513
0.270513
0.270513
0.837240
0.270455
0.837161
0.270447
0.837133
0.270450
0.837176
0.270450
0.270423
0.270363
0.270467
0.270497
0.837126
0.270447
0.270557
0.270513
0.270310
0.837228
0.270438
0.270513
0.837222
0.837241
0.270363
0.270557
0.837242
0.837124
0.270540
0.837161
0.837241
0.270450
0.270438
0.837222
0.837228
0.837222
0.837276
0.270538
0.270513
0.270496
0.837151
0.837149
0.837282
0.837211
0.837222
0.270447
0.837222
0.837226
0.270467
0.270320
0.270497
0.270513
0.270557
0.270374
0.837149
0.837136
0.270423
0.837151
0.270497
0.270372
0.837149
0.837193
0.270450
0.270496
0.837146
0.270463
0.837203
0.837274
0.837266
0.837278
0.270447
0.837249
0.270447
0.270497
0.837274
0.270438
0.837187
0.837222
0.837252
0.270399
0.837122
0.270348
0.270447
0.837216
0.274660
0.837222
0.837274
0.270426
0.270320
0.837133
0.270463
0.270363
0.270392
0.270470
0.270447
0.270447
0.837225
0.837222
0.270360
0.270513
0.837222
0.270540
0.270560
0.837143
0.270310
0.270450
0.837204
0.270399
0.270475
0.837247
0.270399
0.837258
0.837127
0.837222
0.270460
0.270447
0.270370
0.270450
0.837241
0.837162
0.270450
0.270433
0.837268
0.270447
0.837263
0.837160
0.837170
0.270450
0.270447
0.396862
0.270513
0.271231
0.837161
0.837161
0.837236
0.270407
0.270536
0.270434
0.837272
0.270460
0.270360
0.837216
0.837149
0.837222
0.270513
0.270557
0.270551
0.837161
0.270398
0.837263
0.270447
0.270513
0.837188
0.270557
0.396862
0.270447
0.270360
0.270519
0.270320
0.837175
0.270497
0.837161
0.270557
0.270365
0.837279
0.270363
0.837172
0.270372
0.837222
0.837222
0.270497
0.837278
0.837250
0.270318
0.270448
0.270447
0.835448
0.270455
0.706287
0.837258
0.270447
0.270412
0.837244
0.837151
0.270399
0.270450
0.837138
0.837266
0.837135
0.837121
0.837143
0.270412
0.270423
0.837216
0.396862
0.837241
0.837108
0.270513
0.270536
0.270450
0.837222
0.270551
0.837172
0.837242
0.270450
0.270476
0.270557
0.706679
0.270360
0.270310
0.270431
0.837214
0.270450
0.270551
0.270467
0.270399
0.837161
0.374611
0.270399
0.837121
0.837141
0.270498
0.270447
0.270557
0.270370
0.837195
0.270438
0.837168
0.270467
0.837193
0.837227
0.270363
0.270450
0.270557
0.837274
0.270363
0.837253
0.837166
0.837149
0.270450
0.270497
0.837181
0.270412
0.837222
0.837240
0.837184
0.270431
0.837161
0.837282
0.837191
0.270470
0.270513
0.270557
0.837276
0.270496
0.837185
0.270370
0.837186
0.270453
0.270458
0.837127
0.270513
0.837121
0.270318
0.270542
0.270513
0.270497
0.270412
0.837122
0.270542
0.270318
0.837227
0.837212
0.837162
0.270434
0.837183
0.270431
0.837124
0.270496
0.270434
0.837271
0.271231
0.294487
0.270497
0.270426
0.270316
0.270557
0.270412
0.837274
0.270447
0.837146
0.270447
0.837222
0.837222
0.837203
0.270426
0.270455
0.837161
0.837222
0.270497
0.270310
0.270557
0.837214
0.270412
0.837275
0.270542
0.270455
0.270370
0.270447
0.270499
0.270448
0.270499
0.270556
0.837184
0.270431
0.270450
0.837176
0.270447
0.270430
0.837222
0.837162
0.270450
0.270450
0.270360
0.837222
0.270431
0.270450
0.270450
0.270312
0.270392
0.837222
0.837161
0.270447
0.837195
0.270316
0.837262
0.837121
0.270310
0.837159
0.706679
0.270513
0.270470
0.837258
0.270363
0.837246
0.837222
0.837222
0.270460
0.270447
0.837161
0.837161
0.837265
0.837149
0.270538
0.837252
0.837267
0.837231
0.270560
0.270513
0.837161
0.270499
0.270447
0.837278
0.270318
0.270536
0.706679
0.270447
0.270513
0.270467
0.837124
0.270447
0.270513
0.837244
0.270431
0.270557
0.837274
0.837222
0.270431
0.270539
0.270538
0.270519
0.837231
0.270407
0.270450
0.270426
0.837236
0.837210
0.270316
0.837179
0.270497
0.270455
0.837169
0.270476
0.837218
0.270447
0.270497
0.270318
0.270412
0.270536
0.270363
0.270557
0.270399
0.837110
0.837222
0.837188
0.270450
0.837222
0.270438
0.270363
0.837121
0.270318
0.270513
0.837192
0.837224
0.270438
0.270460
0.270499
0.837267
0.270540
0.837271
0.270497
0.270450
0.837218
0.270312
0.270392
0.270310
0.270460
0.270399
0.270476
0.837222
0.270431
0.837133
0.837222
0.270363
0.270447
0.270447
0.270551
0.294487
0.270557
0.837158
0.837195
0.270447
0.270499
0.270398
0.270551
0.837151
0.270450
0.270370
0.837274
0.270310
0.270458
0.837161
0.270557
0.837229
0.837222
0.270557
0.837189
0.270557
0.837204
0.270447
0.837121
0.837241
0.270497
0.837184
0.837216
0.270557
0.270365
0.270460
0.270363
0.270447
0.270513
0.270431
0.270458
0.837193
0.270450
0.270450
0.837243
0.837222
0.270447
0.270363
0.270513
0.837146
0.270450
0.837174
0.837259
0.392654
0.270450
0.837241
0.270467
0.835448
0.270363
0.270458
0.270447
0.837264
0.837111
0.270499
0.270447
0.837226
0.270438
0.837149
0.837170
0.270359
0.837168
0.270542
0.270560
0.837274
0.837222
0.270363
0.270450
0.270513
0.837161
0.853729
0.270542
0.837242
0.270538
0.270498
0.837193
0.837225
0.837241
0.270447
0.837188
0.837144
0.837125
0.270538
0.837222
0.837243
0.270496
0.837161
0.270399
0.837225
0.270497
0.837259
0.837222
0.837161
0.270458
0.837140
0.837256
0.837222
0.837161
0.270447
0.837161
0.270513
0.837157
0.270310
0.837189
0.837222
0.837161
0.837234
0.270392
0.837149
0.270447
0.270394
0.270513
0.270316
0.837168
0.837242
0.270519
0.270450
0.837206
0.837265
0.837171
0.270557
0.837168
0.837271
0.270360
0.837222
0.392654
0.270450
0.270450
0.270467
0.837133
0.270497
0.270513
0.837182
0.270476
0.837113
0.837121
0.270557
0.837224
0.270363
0.270556
0.837156
0.270398
0.837151
0.837140
0.837170
0.837222
0.270447
0.837268
0.270513
0.837157
0.837274
0.270450
0.332679
0.270447
0.270407
0.270447
0.837231
0.270475
0.837274
0.270438
0.270348
0.270370
0.270447
0.837192
0.270540
0.837193
0.270310
0.837125
0.270557
0.837192
0.270557
0.837138
0.837121
0.837222
0.270447
0.270438
0.270513
0.706679
0.270363
0.837238
0.837175
0.706287
0.837204
0.270438
0.270463
0.837161
0.837151
0.837111
0.270450
0.270370
0.837241
0.837146
0.837125
0.270450
0.270450
0.270542
0.837274
0.837121
0.837228
0.270399
0.837201
0.270557
0.837138
0.837151
0.837246
0.837256
0.837222
0.837133
0.837274
0.837222
0.270447
0.837272
0.837176
0.270521
0.837146
0.837151
0.270320
0.270557
0.270433
0.837266
0.271231
0.837108
0.270557
0.270318
0.837161
0.270519
0.270513
0.837193
0.270360
0.837151
0.837274
0.837186
0.270310
0.271961
0.837222
0.837222
0.837189
0.837206
0.837275
0.270460
0.270551
0.837154
0.270538
0.837158
0.392654
0.837171
0.270407
0.837148
0.837227
0.837175
0.837161
0.837169
0.270320
0.270447
0.837172
0.270497
0.270557
0.837140
0.270438
0.270363
0.837112
0.270521
0.837168
0.837156
0.837214
0.837172
0.270430
0.837161
0.837161
0.270455
0.837117
0.270497
0.837274
0.837113
0.270398
0.270450
0.837228
0.837236
0.270476
0.837138
0.837121
0.270438
0.270360
0.852130
0.270538
0.837252
0.270540
0.270497
0.837125
0.837171
0.837241
0.270557
0.270438
0.270450
0.837162
0.837122
0.270497
0.270475
0.270497
0.837259
0.270399
0.837243
0.837121
0.837211
0.270450
0.270374
0.270407
0.837222
0.837149
0.270423
0.837238
0.835448
0.270460
0.837268
0.270447
0.837211
0.270447
0.270450
0.270496
0.270423
0.270455
0.270363
0.270348
0.270513
0.270402
0.837168
0.837249
0.837267
0.837154
0.270450
0.837110
0.270557
0.837176
0.837229
0.270363
0.270426
0.837274
0.270310
0.837113
0.829621
0.837225
0.270320
0.837121
0.270513
0.837223
0.837133
0.837192
0.837135
0.270348
0.837161
0.270398
0.837161
0.837136
0.837266
0.270557
0.837227
0.270392
0.837162
0.270398
0.837170
0.837202
0.270513
0.837242
0.270363
0.270438
0.270463
0.270557
0.837155
0.837222
0.270447
0.270450
0.270434
0.270438
0.837161
0.270438
0.270513
0.270536
0.374611
0.270455
0.837233
0.270320
0.837219
0.837222
0.270447
0.270538
0.837242
0.270458
0.837214
0.837276
0.837121
0.270399
0.270557
0.270450
0.837109
0.270399
0.837222
0.271231
0.837240
0.270467
0.270513
0.837149
0.706679
0.270519
0.270476
0.270426
0.270370
0.837279
0.270499
0.837178
0.837161
0.837214
0.270519
0.837158
0.837240
0.392654
0.270363
0.837167
0.270447
0.270458
0.270467
0.270434
0.270450
0.270363
0.270318
0.270450
0.270318
0.837143
0.837214
0.837241
0.837206
0.270467
0.270450
0.270318
0.837234
0.837222
0.270407
0.270450
0.270320
0.837242
0.270431
0.837265
0.837146
0.270467
0.270460
0.270475
0.270450
0.837241
0.837167
0.837222
0.837222
0.270438
0.837161
0.270320
0.270399
0.837121
0.784228
0.270438
0.270513
0.270455
0.837111
0.270447
0.270557
0.270447
0.270434
0.837175
0.270450
0.270458
0.837123
0.837118
0.270513
0.270438
0.270412
0.837151
0.837242
0.270450
0.837265
0.270455
0.270399
0.270513
0.706679
0.270447
0.270448
0.270392
0.837121
0.270458
0.837236
0.837214
0.837216
0.837222
0.837222
0.392654
0.837140
0.270497
0.837222
0.270460
0.837249
0.396862
0.837165
0.270426
0.270398
0.837161
0.270450
0.270450
0.270398
0.837237
0.706287
0.270447
0.837188
0.270431
0.270399
0.837224
0.270453
0.270412
0.837222
0.270497
0.270438
0.837108
0.270318
0.837222
0.270450
0.270557
0.837135
0.270316
0.837230
0.837230
0.533189
0.837161
0.270447
0.270450
0.270431
0.270450
0.270438
0.837159
0.270360
0.270447
0.270519
0.837243
0.837222
0.270538
0.837222
0.270513
0.270557
0.837154
0.270450
0.837222
0.837282
0.837156
0.837161
0.270447
0.271231
0.837235
0.270551
0.837222
0.270398
0.704937
0.270460
0.270463
0.837222
0.706679
0.270513
0.270450
0.270496
0.270447
0.837234
0.270447
0.837128
0.837205
0.837222
0.837133
0.270560
0.270438
0.837121
0.270450
0.270448
0.837113
0.270458
0.270447
0.270476
0.270519
0.837216
0.270476
0.837222
0.837251
0.270318
0.837122
0.270513
0.837264
0.837228
0.270467
0.270348
0.837263
0.706287
0.837266
0.837259
0.270430
0.837228
0.270399
0.837268
0.837123
0.837222
0.837232
0.270470
0.270557
0.837168
0.837161
0.270467
0.270510
0.837227
0.270438
0.270476
0.270463
0.270532
0.270412
0.270407
0.837133
0.270536
0.270431
0.270348
0.270460
0.270431
0.270447
0.837252
0.837127
0.270447
0.270557
0.270455
0.837222
0.837161
0.837138
0.837204
0.270540
0.270476
0.837226
0.270310
0.270513
0.270447
0.837124
0.837236
0.270538
0.270499
0.837224
0.270538
0.837203
0.706272
0.270458
0.837259
0.270450
0.837274
0.270374
0.837216
0.270497
0.270463
0.837241
0.271231
0.837227
0.837161
0.837241
0.837161
0.837252
0.837188
0.332679
0.270447
0.837228
0.837254
0.837144
0.270557
0.837121
0.270467
0.270513
0.270542
0.837121
0.837216
0.706679
0.837149
0.837189
0.837203
0.270513
0.837238
0.837202
0.837274
0.270447
0.270542
0.837228
0.837122
0.837222
0.837222
0.270538
0.837222
0.270538
0.837225
0.837144
0.270370
0.837240
0.837184
0.270450
0.270431
0.270450
0.270407
0.270467
0.270374
0.270557
0.837161
0.396862
0.837222
0.270551
0.837149
0.837111
0.270447
0.837159
0.837222
0.837121
0.270542
0.837120
0.270426
0.270476
0.270497
0.270434
0.270392
0.837222
0.270370
0.837216
0.837222
0.270447
0.837161
0.837161
0.270431
0.270403
0.270540
0.270447
0.837222
0.270499
0.837230
0.270447
0.270538
0.837232
0.270448
0.837161
0.270312
0.270519
0.270560
0.837161
0.270450
0.270450
0.837276
0.270399
0.837161
0.837222
0.706287
0.837161
0.270450
0.270496
0.332679
0.837244
0.270560
0.270438
0.837216
0.270542
0.837222
0.270407
0.270542
0.837160
0.270392
0.270448
0.270455
0.837251
0.837242
0.837254
0.837161
0.837178
0.837203
0.270497
0.270557
0.837276
0.837222
0.270513
0.837113
0.837121
0.270363
0.837151
0.837201
0.270536
0.270532
0.837126
0.270519
0.270431
0.270399
0.837113
0.837222
0.837167
0.837108
0.837161
0.270497
0.837219
0.837126
0.837274
0.396862
0.270460
0.837224
0.270542
0.270434
0.837242
0.270538
0.270305
0.270497
0.270467
0.837258
0.270431
0.837222
0.837229
0.837264
0.837231
0.836632
0.270450
0.837274
0.270438
0.270310
0.270467
0.837222
0.837222
0.270412
0.270447
0.270513
0.837107
0.837241
0.270448
0.837190
0.837241
0.837209
0.270458
0.270450
0.837176
0.270551
0.270330
0.837193
0.270320
0.271231
0.270513
0.837275
0.837267
0.270447
0.837222
0.270538
0.270447
0.837187
0.837125
0.837176
0.837161
0.270447
0.270496
0.270497
0.270497
0.270426
0.837265
0.837256
0.270467
0.270450
0.270442
0.837118
0.270467
0.270447
0.837161
0.270497
0.270450
0.837161
0.837266
0.837217
0.270360
0.837238
0.837162
0.270320
0.270399
0.270318
0.837108
0.837189
0.837264
0.270431
0.837176
0.270448
0.837144
0.837234
0.270513
0.706679
0.837161
0.270460
0.837202
0.837193
0.270363
0.270370
0.270438
0.270447
0.837229
0.837143
0.837148
0.837127
0.837226
0.837171
0.270430
0.837204
0.270392
0.270475
0.837236
0.270316
0.837222
0.270370
0.270399
0.837236
0.392654
0.270382
0.271961
0.270360
0.837222
0.270557
0.270497
0.270497
0.837183
0.270448
0.270540
0.270450
0.270504
0.270438
0.837242
0.270497
0.270476
0.270536
0.837140
0.270423
0.270320
0.270399
0.270557
0.837259
0.837168
0.270513
0.270318
0.270499
0.270513
0.270458
0.706287
0.837222
0.270497
0.837259
0.270450
0.837259
0.270463
0.270450
0.837125
0.270310
0.270318
0.837121
0.270557
0.270316
0.270538
0.837241
0.270496
0.270438
0.837138
0.270476
0.270538
0.837210
0.837121
0.837184
0.270398
0.270450
0.270497
0.837242
0.270412
0.837241
0.270448
0.837263
0.270399
0.837146
0.270450
0.837111
0.837236
0.837128
0.270450
0.837252
0.270438
0.270433
0.270398
0.270497
0.270463
0.837161
0.837205
0.837146
0.837212
0.837113
0.270348
0.837274
0.837274
0.837161
0.837206
0.837222
0.837223
0.270363
0.837156
0.837222
0.270360
0.837112
0.270499
0.270447
0.837161
0.270430
0.837225
0.270557
0.270557
0.270431
0.270447
0.270438
0.837240
0.270497
0.270540
0.837203
0.837252
0.837161
0.837162
0.270455
0.837242
0.837111
0.837222
0.270496
0.837249
0.270316
0.270431
0.837171
0.837222
0.270447
0.837121
0.837146
0.270450
0.270434
0.270360
0.270320
0.837111
0.270476
0.270560
0.837222
0.837211
0.270450
0.837206
0.270513
0.837178
0.837173
0.837111
0.837175
0.270475
0.837249
0.837274
0.270365
0.270447
0.837316
0.837169
0.270450
0.270398
0.837161
0.270318
0.837214
0.837123
0.837162
0.270513
0.837238
0.270447
0.706679
0.837196
0.837160
0.837121
0.837113
0.270431
0.270530
0.270431
0.837241
0.270557
0.837161
0.272282
0.270447
0.837202
0.270310
0.270497
0.270450
0.837222
0.270399
0.271961
0.270476
0.270450
0.706679
0.837156
0.270557
0.270447
0.837161
0.837222
0.270433
0.270497
0.270450
0.270551
0.837240
0.270399
0.270450
0.270467
0.837202
0.837252
0.270399
0.837159
0.270447
0.270499
0.837186
0.270316
0.837214
0.837188
0.837149
0.837244
0.837161
0.270399
0.270556
0.270399
0.270540
0.270560
0.837133
0.270519
0.837127
0.837252
0.270399
0.270557
0.270496
0.837121
0.837144
0.270557
0.837161
0.837144
0.706287
0.270447
0.837228
0.270463
0.837242
0.837108
0.270450
0.270360
0.837252
0.270310
0.270423
0.270438
0.837222
0.270438
0.837268
0.270426
0.270370
0.270447
0.837121
0.270458
0.837184
0.270370
0.270458
0.706287
0.837222
0.270450
0.837250
0.837228
0.837228
0.270513
0.837161
0.270430
0.270423
0.837149
0.270450
0.270447
0.374611
0.837158
0.270360
0.270458
0.837151
0.837222
0.837178
0.270519
0.837274
0.837230
0.270398
0.270476
0.270447
0.270467
0.270513
0.837256
0.837231
0.270447
0.270431
0.270476
0.837222
0.837185
0.837149
0.837118
0.837209
0.837133
0.270497
0.270360
0.270372
0.270450
0.837138
0.270557
0.837121
0.270398
0.837268
0.837135
0.270540
0.270458
0.837185
0.270448
0.270497
0.837227
0.837265
0.837222
0.837204
0.813955
0.270447
0.270513
0.270348
0.270438
0.270450
0.815413
0.270448
0.837139
0.837161
0.837193
0.270392
0.270447
0.837242
0.837226
0.270447
0.270450
0.837159
0.837123
0.837161
0.837188
0.837149
0.270447
0.837253
0.837249
0.270458
0.270497
0.837222
0.837145
0.270513
0.837157
0.837133
0.270447
0.270316
0.270476
0.837216
0.270460
0.270374
0.837161
0.270460
0.837222
0.270447
0.270374
0.270372
0.837252
0.270560
0.837161
0.270450
0.837204
0.837246
0.270497
0.837271
0.837149
0.270438
0.270438
0.270447
0.270499
0.837161
0.392654
0.270407
0.270450
0.837152
0.270538
0.270320
0.837154
0.837194
0.837133
0.270557
0.837187
0.837242
0.837229
0.837138
0.837242
0.392654
0.270450
0.837209
0.837132
0.270450
0.837172
0.837246
0.837274
0.270407
0.270447
0.270497
0.837222
0.837222
0.837241
0.270450
0.837243
0.396862
0.837168
0.271961
0.837151
0.270455
0.837149
0.270431
0.837247
0.270519
0.837161
0.837172
0.837204
0.837161
0.270447
0.837121
0.270431
0.837263
0.837268
0.837221
0.270450
0.837182
0.837222
0.270360
0.270447
0.837222
0.270320
0.837259
0.837228
0.270470
0.837222
0.270447
0.837156
0.270458
0.270557
0.270447
0.270320
0.270450
0.837138
0.837238
0.270360
0.837172
0.271231
0.837222
0.837231
0.270348
0.270467
0.270447
0.837256
0.837249
0.270365
0.270460
0.270476
0.270467
0.270431
0.270450
0.270447
0.837136
0.270455
0.270438
0.837161
0.270560
0.837222
0.270450
0.271231
0.270438
0.270551
0.270447
0.270426
0.837161
0.270557
0.270476
0.270447
0.837268
0.837161
0.270399
0.837222
0.837151
0.270513
0.837256
0.837161
0.837182
0.837188
0.270320
0.270496
0.270536
0.270438
0.270513
0.270450
0.270438
0.837238
0.270348
0.270447
0.270316
0.270423
0.837274
0.837162
0.270447
0.837267
0.270450
0.270363
0.837160
0.837189
0.837185
0.837166
0.837143
0.837196
0.837121
0.837225
0.837222
0.837161
0.270450
0.837266
0.270318
0.837133
0.837222
0.837216
0.837121
0.270496
0.270450
0.270305
0.837168
0.270450
0.837241
0.270455
0.837192
0.837261
0.270447
0.358938
0.270374
0.837214
0.837121
0.270438
0.837161
0.837204
0.837233
0.270513
0.270542
0.270499
0.837257
0.270360
0.270560
0.270455
0.837124
0.837161
0.270497
0.270438
0.837262
0.837181
0.270536
0.837188
0.837154
0.837229
0.837193
0.270538
0.837243
0.837242
0.270519
0.837125
0.837240
0.837160
0.837109
0.837222
0.270448
0.270450
0.837222
0.837274
0.270499
0.837222
0.270447
0.270316
0.270496
0.837251
0.270519
0.837206
0.837222
0.837176
0.270540
0.270447
0.837251
0.270318
0.270447
0.270496
0.270447
0.837144
0.837225
0.270310
0.270447
0.270431
0.270447
0.837222
0.270426
0.270496
0.837231
0.837209
0.837174
0.270360
0.837222
0.270438
0.837113
0.270463
0.837127
0.270399
0.270450
0.270438
0.270560
0.270450
0.837252
0.837189
0.270417
0.837149
0.270434
0.837278
0.837204
0.270438
0.270538
0.270455
0.837186
0.837135
0.837182
0.270447
0.837161
0.270310
0.837193
0.837242
0.270447
0.270310
0.270467
0.837183
0.270557
0.270497
0.837192
0.270402
0.837222
0.837187
0.270431
0.270431
0.270538
0.270447
0.837162
0.837227
0.270476
0.837258
0.270310
0.837278
0.270450
0.270499
0.270438
0.270438
0.837222
0.270442
0.837141
0.837271
0.840010
0.837225
0.270496
0.837266
0.271231
0.270399
0.270448
0.270470
0.270450
0.270450
0.270497
0.837140
0.270542
0.270499
0.837274
0.270499
0.837108
0.270463
0.270467
0.270467
0.270316
0.270450
0.837151
0.837161
0.270398
0.270467
0.270316
0.270316
0.837256
0.270542
0.270450
0.837259
0.270447
0.270450
0.837161
0.270447
0.837193
0.270497
0.270497
0.270430
0.270557
0.270540
0.837188
0.837161
0.270310
0.270455
0.837207
0.270450
0.270407
0.837222
0.837222
0.270447
0.837214
0.837236
0.270447
0.837222
0.270398
0.270538
0.270476
0.837182
0.837222
0.837157
0.270517
0.270438
0.270318
0.837159
0.270450
0.270557
0.837250
0.837242
0.837192
0.270557
0.271961
0.270447
0.270447
0.270497
0.837161
0.270475
0.270557
0.270312
0.837237
0.270513
0.837250
0.837118
0.837225
0.270423
0.270467
0.270513
0.270398
0.837159
0.837222
0.270316
0.837278
0.706679
0.270470
0.270374
0.837151
0.270450
0.837144
0.837241
0.270560
0.270447
0.270448
0.270360
0.270538
0.270458
0.837125
0.837225
0.837222
0.270497
0.837146
0.270513
0.837219
0.837173
0.270497
0.270363
0.270519
0.837223
0.837274
0.837202
0.270475
0.837214
0.837203
0.270513
0.270448
0.270455
0.270460
0.837121
0.270497
0.270538
0.837127
0.837222
0.837253
0.837149
0.837193
0.270497
0.706287
0.270557
0.837267
0.837161
0.837195
0.837248
0.837161
0.270448
0.837178
0.270551
0.837113
0.837202
0.270438
0.837171
0.837140
0.837189
0.270538
0.270450
0.270496
0.837231
0.270513
0.837121
0.270538
0.837167
0.270320
0.837203
0.837203
0.270438
0.837225
0.837231
0.270557
0.270450
0.837222
0.837149
0.837175
0.837272
0.270370
0.837143
0.270431
0.837256
0.270330
0.270438
0.837209
0.270538
0.837161
0.706287
0.837274
0.837149
0.837161
0.270447
0.837268
0.270467
0.837168
0.270455
0.270363
0.270470
0.270447
0.837276
0.270310
0.837247
0.270557
0.837222
0.332679
0.837148
0.270450
0.837551
0.270450
0.837222
0.270460
0.270398
0.837180
0.270426
0.270460
0.270455
0.270365
0.270412
0.837121
0.270497
0.270370
0.270497
0.270499
0.270540
0.270448
0.270438
0.837125
0.837161
0.270470
0.837113
0.270447
0.837255
0.837161
0.270438
0.837222
0.270547
0.837210
0.270448
0.270426
0.270447
0.270467
0.837161
0.837264
0.270320
0.837241
0.270557
0.837133
0.270557
0.270497
0.270473
0.270497
0.270442
0.270476
0.837199
0.837222
0.270431
0.270438
0.270496
0.270542
0.837194
0.270310
0.270467
0.837187
0.270438
0.837199
0.270519
0.271231
0.837259
0.837254
0.270450
0.270560
0.837158
0.835448
0.837161
0.270430
0.270519
0.837109
0.270370
0.270447
0.837282
0.837241
0.837228
0.270450
0.837121
0.270467
0.837152
0.837118
0.837202
0.837214
0.837168
0.837169
0.837223
0.837168
0.270447
0.270455
0.709425
0.837222
0.270438
0.270448
0.837232
0.270536
0.270316
0.270438
0.837276
0.837159
0.270447
0.270536
0.270318
0.837225
0.270519
0.270450
0.270557
0.837222
0.270450
0.270557
0.837222
0.270458
0.270412
0.837121
0.837222
0.270557
0.270348
0.270557
0.270542
0.270513
0.837121
0.270557
0.270310
0.837241
0.837195
0.837109
0.270450
0.270310
0.837226
0.270363
0.837161
0.837124
0.837238
0.837161
0.837121
0.270363
0.837262
0.270475
0.837175
0.270540
0.837222
0.835682
0.270455
0.270450
0.270557
0.270402
0.837244
0.837111
0.837255
0.706679
0.837222
0.837262
0.270557
0.837242
0.837125
0.270520
0.270399
0.837149
0.837224
0.270447
0.837161
0.270447
0.837232
0.837121
0.270455
0.837229
0.270450
0.837222
0.396862
0.837156
0.837218
0.270513
0.837185
0.270557
0.270320
0.837231
0.837240
0.270470
0.270551
0.837222
0.837121
0.270392
0.270450
0.270447
0.837121
0.270557
0.837222
0.270557
0.837259
0.270499
0.270560
0.837109
0.837169
0.270560
0.270497
0.837151
0.837263
0.270450
0.837268
0.270363
0.837192
0.270499
0.837266
0.270399
0.270497
0.271961
0.270499
0.837222
0.837185
0.837223
0.837170
0.837193
0.837161
0.837110
0.837236
0.270497
0.837222
0.270402
0.270448
0.837168
0.837121
0.270513
0.837151
0.837249
0.270513
0.837121
0.837161
0.270475
0.837204
0.270458
0.270447
0.270467
0.270557
0.837161
0.837240
0.837172
0.270320
0.837161
0.837190
0.837161
0.270513
0.837122
0.837222
0.270363
0.270399
0.837247
0.270310
0.270447
0.837226
0.270467
0.270460
0.837108
0.270540
0.270458
0.270310
0.837222
0.837151
0.837249
0.837272
0.837194
0.270447
0.270475
0.270447
0.270540
0.270513
0.837263
0.837113
0.270363
0.837139
0.837241
0.837233
0.837121
0.270412
0.270557
0.270476
0.270497
0.837276
0.837222
0.837160
0.270447
0.837247
0.270450
0.270467
0.837242
0.270467
0.837216
0.837159
0.270438
0.837130
0.270475
0.270460
0.270513
0.270447
0.837188
0.270438
0.837247
0.270538
0.270450
0.270538
0.270324
0.270399
0.837230
0.270399
0.837214
0.270557
0.272282
0.837161
0.270370
0.270398
0.270513
0.270513
0.837258
0.837224
0.837242
0.837181
0.270430
0.837161
0.270536
0.270360
0.270538
0.837190
0.837265
0.270310
0.837234
0.270447
0.270460
0.270399
0.837144
0.270402
0.837188
0.270467
0.837206
0.392654
0.837231
0.837242
0.270438
0.270460
0.837126
0.837201
0.837111
0.270447
0.837276
0.270430
0.837274
0.837230
0.837267
0.837159
0.837172
0.270407
0.837209
0.270513
0.837206
0.270320
0.270458
0.837111
0.837161
0.837126
0.837171
0.837149
0.837229
0.270538
0.270348
0.837143
0.837205
0.837161
0.270560
0.270497
0.270348
0.270557
0.270513
0.837171
0.270497
0.270370
0.837229
0.270438
0.270447
0.270455
0.270392
0.837263
0.270496
0.837278
0.270447
0.270519
0.270463
0.837249
0.270513
0.270431
0.270365
0.270476
0.837202
0.270316
0.837156
0.837234
0.837179
0.270398
0.837238
0.270519
0.837161
0.270455
0.706287
0.837110
0.832391
0.270348
0.837161
0.270399
0.392654
0.270447
0.270504
0.270370
0.270458
0.270519
0.270423
0.837176
0.837146
0.270434
0.270426
0.270447
0.270448
0.837242
0.270399
0.837255
0.837282
0.270399
0.270470
0.270499
0.270450
0.837121
0.837222
0.837267
0.392654
0.837108
0.837151
0.270470
0.270450
0.837161
0.270348
0.270438
0.270310
0.270363
0.837151
0.837136
0.270438
0.270407
0.837214
0.837114
0.270450
0.837249
0.837161
0.270560
0.837194
0.270447
0.270458
0.270450
0.270542
0.270374
0.270519
0.270447
0.270407
0.270450
0.837121
0.270403
0.837189
0.270540
0.837225
0.837222
0.837222
0.270431
0.837149
0.837261
0.837222
0.837118
0.706287
0.837267
0.270447
0.270388
0.837278
0.270460
0.837126
0.837222
0.837149
0.271231
0.270399
0.837265
0.270513
0.837250
0.270438
0.270370
0.270557
0.837140
0.270467
0.270557
0.270536
0.270499
0.270448
0.270497
0.270557
0.837222
0.270476
0.837222
0.270423
0.270497
0.837267
0.837146
0.270434
0.813955
0.837229
0.270447
0.837244
0.837186
0.837224
0.270551
0.837151
0.270431
0.270438
0.837151
0.837282
0.837222
0.270320
0.270496
0.270557
0.270519
0.270426
0.270513
0.837122
0.270318
0.270496
0.270455
0.270426
0.270450
0.837108
0.270557
0.837111
0.270447
0.270497
0.270450
0.270560
0.270447
0.837204
0.270447
0.270513
0.706679
0.837182
0.270476
0.837161
0.270497
0.270438
0.270447
0.270407
0.837238
0.837222
0.270497
0.270438
0.837249
0.270438
0.270370
0.270513
0.270438
0.837161
0.270467
0.837202
0.270438
0.270497
0.837241
0.837222
0.837222
0.837110
0.270497
0.270450
0.271231
0.837136
0.837113
0.270438
0.837121
0.837218
0.270447
0.270557
0.837243
0.837167
0.270399
0.270450
0.270497
0.270392
0.837274
0.837249
0.270434
0.270513
0.270316
0.270318
0.837229
0.837151
0.837161
0.837175
0.837231
0.837161
0.270310
0.270450
0.270450
0.837222
0.270363
0.270426
0.270542
0.270557
0.270557
0.837166
0.270363
0.270496
0.270450
0.837125
0.270496
0.270538
0.837229
0.270438
0.270398
0.270450
0.837182
0.270438
0.270316
0.270476
0.837121
0.270431
0.837258
0.270460
0.270450
0.837268
0.837216
0.270455
0.270305
0.270513
0.837121
0.270438
0.837230
0.270497
0.270392
0.270310
0.270399
0.270540
0.837222
0.837211
0.270433
0.837161
0.396862
0.837143
0.270438
0.270399
0.270476
0.837193
0.270557
0.270450
0.837151
0.837222
0.837241
0.270447
0.270360
0.270538
0.270540
0.837276
0.270557
0.270360
0.837252
0.270557
0.837222
0.270557
0.270455
0.837151
0.837161
0.270447
0.270557
0.270318
0.270463
0.270370
0.837133
0.837242
0.837255
0.270551
0.294487
0.270497
0.837222
0.270557
0.270348
0.270447
0.270475
0.396862
0.837222
0.270438
0.270450
0.270447
0.270557
0.270455
0.270519
0.837121
0.270467
0.270447
0.270438
0.837216
0.837274
0.270467
0.270320
0.837138
0.837230
0.837125
0.270460
0.837240
0.270447
0.837161
0.837249
0.270438
0.837222
0.270557
0.270557
0.270431
0.271231
0.837274
0.270310
0.270467
0.270447
0.837188
0.270557
0.270370
0.270513
0.270475
0.270374
0.837228
0.270450
0.837209
0.837151
0.837143
0.837258
0.270438
0.270463
0.837121
0.714211
0.837161
0.837250
0.790902
0.270370
0.270447
0.270499
0.270463
0.837161
0.837121
0.270450
0.270447
0.837161
0.837237
0.270450
0.270460
0.270538
0.837214
0.270542
0.270360
0.837222
0.837168
0.392654
0.396862
0.270348
0.270538
0.270450
0.837140
0.270470
0.837121
0.837122
0.270407
0.270316
0.270540
0.837265
0.396862
0.270445
0.837268
0.837231
0.270450
0.270447
0.270557
0.837161
0.837244
0.837189
0.837253
0.270460
0.270460
0.837222
0.270450
0.837140
0.837154
0.270399
0.837238
0.772418
0.270556
0.837222
0.270310
0.837111
0.270513
0.837259
0.270310
0.270431
0.270363
0.837121
0.270519
0.837156
0.837263
0.837216
0.837138
0.837221
0.270370
0.837222
0.270360
0.837193
0.270499
0.271231
0.837151
0.270475
0.837161
0.270320
0.270497
0.270476
0.270447
0.837255
0.837247
0.270557
0.270540
0.270392
0.837168
0.270513
0.837161
0.270365
0.270460
0.270538
0.837222
0.270450
0.837246
0.837222
0.270431
0.270330
0.837181
0.270557
0.837151
0.837161
0.270455
0.837259
0.270316
0.706679
0.270438
0.837169
0.837175
0.270407
0.837161
0.270463
0.270447
0.837159
0.270499
0.837263
0.837161
0.270450
0.837183
0.270450
0.837243
0.270448
0.270392
0.837113
0.270450
0.270447
0.270538
0.837173
0.837222
0.837222
0.835448
0.270438
0.270450
0.270392
0.837219
0.837161
0.270557
0.270458
0.270450
0.837159
0.837267
0.837121
0.270320
0.837161
0.270363
0.837193
0.837228
0.837279
0.270399
0.270460
0.270370
0.837161
0.270536
0.837161
0.270513
0.270536
0.837190
0.270447
0.270423
0.837180
0.270374
0.270557
0.837201
0.270447
0.837161
0.270426
0.837125
0.270447
0.837243
0.837143
0.837169
0.270463
0.270447
0.270450
0.271961
0.837161
0.837242
0.837231
0.270450
0.837222
0.270497
0.270557
0.706679
0.270467
0.837121
0.837171
0.837161
0.837172
0.837121
0.837222
0.270538
0.837276
0.270463
0.837236
0.270467
0.837175
0.837249
0.837222
0.837111
0.270447
0.270513
0.270407
0.837111
0.837222
0.270447
0.837144
0.270431
0.837274
0.270557
0.847859
0.837149
0.837278
0.270463
0.270497
0.270557
0.837241
0.837151
0.837199
0.270398
0.270365
0.270447
0.270360
0.837112
0.837124
0.270560
0.270497
0.270557
0.837161
0.270310
0.270450
0.837222
0.835448
0.270540
0.270542
0.837241
0.837108
0.837227
0.837246
0.270497
0.270463
0.837234
0.270392
0.270513
0.270496
0.270476
0.837170
0.837238
0.270467
0.837242
0.837161
0.270551
0.270513
0.837183
0.837222
0.270447
0.837157
0.270316
0.270438
0.270320
0.837265
0.270426
0.837229
0.837161
0.849407
0.270370
0.270499
0.837192
0.270447
0.270460
0.837240
0.270513
0.270557
0.270434
0.270519
0.270450
0.270460
0.270363
0.270447
0.270434
0.270458
0.837143
0.837216
0.837162
0.270310
0.837118
0.837175
0.270470
0.270475
0.270557
0.837209
0.837222
0.837217
0.270551
0.837161
0.837181
0.837161
0.270450
0.837121
0.270497
0.270450
0.270320
0.837224
0.270316
0.270316
0.270463
0.837237
0.837263
0.270374
0.270316
0.270398
0.270447
0.270348
0.270560
0.837125
0.270450
0.270560
0.270497
0.837222
0.837121
0.837125
0.837238
0.270407
0.837232
0.837109
0.837222
0.837202
0.270398
0.837241
0.270460
0.837255
0.270460
0.270431
0.270442
0.270320
0.837160
0.837126
0.270423
0.837159
0.270423
0.837222
0.270399
0.270467
0.270540
0.837214
0.837253
0.837168
0.270370
0.837161
0.270460
0.270497
0.270318
0.837114
0.837135
0.270438
0.837124
0.706679
0.270348
0.837119
0.270398
0.837121
0.837134
0.837121
0.270540
0.270447
0.270557
0.837226
0.270370
0.270504
0.270431
0.837206
0.270447
0.837111
0.271231
0.837222
0.837243
0.837187
0.270434
0.270348
0.270396
0.270447
0.270460
0.270438
0.270442
0.270438
0.270399
0.837121
0.270431
0.837227
0.270450
0.837202
0.270399
0.837203
0.270448
0.270540
0.270557
0.270412
0.837228
0.837151
0.270557
0.270540
0.270430
0.270497
0.837222
0.270473
0.270392
0.270467
0.837110
0.837222
0.270431
0.837161
0.837175
0.837274
0.270431
0.837121
0.270310
0.270447
0.837222
0.837259
0.270475
0.837230
0.270447
0.837246
0.837166
0.270431
0.270434
0.837171
0.270499
0.270536
0.270557
0.270557
0.270398
0.270447
0.270450
0.837241
0.270398
0.270360
0.837202
0.270450
0.837193
0.837113
0.837108
0.706287
0.270450
0.837174
0.270455
0.270557
0.270363
0.270497
0.270455
0.837222
0.837247
0.270320
0.270381
0.270519
0.270450
0.270447
0.837195
0.837143
0.785775
0.270447
0.837161
0.270499
0.837161
0.837274
0.270438
0.837161
0.270447
0.837193
0.837162
0.837268
0.270438
0.270370
0.270438
0.270513
0.270438
0.270447
0.270399
0.270407
0.270557
0.837222
0.270394
0.270557
0.837133
0.270497
0.270448
0.837206
0.837124
0.837249
0.837280
0.837255
0.837161
0.837121
0.837258
0.270316
0.837222
0.270398
0.270447
0.837121
0.837161
0.837222
0.270320
0.270365
0.270348
0.837242
0.837133
0.270310
0.270447
0.270381
0.837198
0.270450
0.837161
0.392654
0.270318
0.837274
0.837171
0.270448
0.270513
0.837122
0.270496
0.837228
0.837222
0.837255
0.837241
0.270450
0.837274
0.837196
0.837255
0.837222
0.837246
0.270476
0.837278
0.837172
0.837247
0.270374
0.837133
0.270365
0.270447
0.270497
0.270560
0.270447
0.270431
0.270560
0.837121
0.837111
0.270497
0.270447
0.837222
0.270346
0.270467
0.837171
0.837274
0.270399
0.837278
0.270504
0.270434
0.837231
0.270370
0.837222
0.837250
0.270431
0.837275
0.837118
0.270392
0.837175
0.837278
0.270467
0.396862
0.270513
0.837241
0.271961
0.270450
0.270374
0.270513
0.270475
0.270374
0.270398
0.837121
0.270360
0.837222
0.837242
0.837224
0.270476
0.270497
0.837124
0.837168
0.270363
0.270370
0.270499
0.837167
0.270360
0.837158
0.837222
0.270450
0.270513
0.270557
0.270557
0.270496
0.270542
0.270513
0.270447
0.270499
0.837222
0.270519
0.270426
0.270557
0.270450
0.270450
0.837235
0.837222
0.270551
0.270497
0.704937
0.270450
0.837161
0.837192
0.270447
0.270363
0.270363
0.837144
0.270519
0.270467
0.270360
0.270497
0.837144
0.837151
0.270475
0.374611
0.837138
0.270399
0.837121
0.270513
0.837254
0.270365
0.270374
0.837242
0.837199
0.270370
0.270370
0.270316
0.837160
0.270412
0.270447
0.837143
0.837222
0.270450
0.837247
0.270557
0.270430
0.837170
0.270557
0.270557
0.837222
0.270431
0.837161
0.837141
0.270448
0.270463
0.270447
0.837219
0.837231
0.837161
0.270348
0.837222
0.837242
0.271961
0.270316
0.837161
0.837240
0.270538
0.837250
0.837222
0.837222
0.837161
0.837222
0.837203
0.837118
0.270475
0.270407
0.270513
0.270348
0.270458
0.837128
0.270310
0.270431
0.270540
0.270348
0.785775
0.837187
0.270467
0.837249
0.837161
0.270450
0.270318
0.837275
0.270398
0.274660
0.270417
0.837161
0.270497
0.270450
0.837204
0.837249
0.270438
0.270557
0.270455
0.270513
0.270365
0.837173
0.270450
0.837161
0.270460
0.837175
0.837192
0.837242
0.837279
0.270447
0.270536
0.837149
0.270497
0.837111
0.270542
0.837160
0.837125
0.837122
0.270557
0.837259
0.837259
0.837174
0.270399
0.270310
0.270460
0.270320
0.270430
0.837178
0.270463
0.270513
0.837113
0.270557
0.837243
0.270448
0.837138
0.270448
0.837222
0.848962
0.837222
0.270513
0.270447
0.837143
0.270460
0.270476
0.837151
0.837222
0.392654
0.270450
0.837275
0.837236
0.270558
0.270450
0.837261
0.270460
0.270467
0.270447
0.270360
0.270513
0.270447
0.837192
0.837251
0.837160
0.837226
0.270513
0.837161
0.837222
0.270497
0.270460
0.837149
0.270470
0.837127
0.837193
0.270433
0.270450
0.837171
0.837234
0.270450
0.837230
0.837228
0.837149
0.837283
0.270450
0.270310
0.837183
0.837222
0.837121
0.270450
0.837121
0.270455
0.837209
0.270476
0.270398
0.370925
0.270513
0.270513
0.837225
0.837161
0.270557
0.270455
0.837255
0.270363
0.837161
0.270557
0.837111
0.837263
0.837216
0.706679
0.837258
0.270542
0.270447
0.837183
0.270497
0.837222
0.270450
0.270551
0.270557
0.270513
0.270450
0.270475
0.270557
0.837139
0.270430
0.270513
0.270540
0.270450
0.270370
0.837189
0.837161
0.837217
0.270450
0.270407
0.837204
0.837161
0.837230
0.837222
0.270448
0.270450
0.270363
0.270475
0.270513
0.837204
0.837118
0.270558
0.270320
0.837114
0.270398
0.270450
0.270310
0.270305
0.270363
0.270447
0.270557
0.270557
0.270513
0.270348
0.270497
0.270431
0.837255
0.270450
0.270463
0.270348
0.837166
0.270542
0.270455
0.270455
0.270557
0.837182
0.837225
0.270434
0.270557
0.837171
0.270310
0.270399
0.270438
0.837110
0.270455
0.270398
0.270455
0.270460
0.270560
0.837240
0.837241
0.837149
0.837161
0.270447
0.270497
0.270557
0.837169
0.270426
0.270318
0.270434
0.270448
0.837222
0.270476
0.837185
0.270539
0.270412
0.837151
0.837149
0.837111
0.837259
0.270407
0.270399
0.706287
0.837107
0.837166
0.837236
0.270538
0.837274
0.836993
0.270447
0.837216
0.837206
0.270450
0.837151
0.270407
0.270407
0.837181
0.837252
0.270363
0.837161
0.270538
0.270399
0.270370
0.270519
0.270370
0.270450
0.270320
0.270310
0.270532
0.837316
0.837247
0.837169
0.270513
0.837144
0.270316
0.837151
0.270447
0.270450
0.837209
0.837149
0.270450
0.837161
0.837195
0.837121
0.837156
0.270399
0.837162
0.270544
0.837231
0.837110
0.270519
0.270450
0.270330
0.270540
0.270365
0.270557
0.270450
0.706679
0.837187
0.270513
0.270316
0.837236
0.270447
0.837160
0.270557
0.837161
0.837183
0.270497
0.837279
0.837168
0.837174
0.270499
0.837266
0.270540
0.270370
0.837161
0.837144
0.270470
0.270398
0.837272
0.270521
0.837156
0.837214
0.270557
0.837151
0.837274
0.396862
0.837222
0.396862
0.837241
0.270434
0.270438
0.270463
0.837258
0.837232
0.837221
0.270434
0.837267
0.270450
0.837160
0.837149
0.270310
0.270360
0.270557
0.270447
0.270310
0.837222
0.837110
0.837225
0.270538
0.837133
0.270447
0.837194
0.837161
0.837222
0.837250
0.270513
0.270475
0.270447
0.270447
0.837205
0.270551
0.270447
0.270475
0.270431
0.837121
0.837236
0.837161
0.270450
0.837246
0.270461
0.270450
0.837274
0.837228
0.270519
0.837161
0.837193
0.271231
0.270321
0.270412
0.270467
0.270430
0.270497
0.270473
0.270370
0.837156
0.270467
0.270398
0.837121
0.270450
0.270476
0.270513
0.837222
0.270365
0.270363
0.270318
0.837226
0.270463
0.837144
0.270426
0.837226
0.270412
0.837243
0.837246
0.837121
0.270557
0.837162
0.270458
0.837127
0.837241
0.837127
0.270403
0.837176
0.270434
0.837133
0.837108
0.270450
0.837209
0.270450
0.837161
0.706287
0.837141
0.837161
0.837222
0.270398
0.837228
0.837222
0.270450
0.837241
0.270497
0.270499
0.837161
0.837252
0.837227
0.270496
0.837154
0.270460
0.837268
0.837113
0.837158
0.837173
0.837159
0.270450
0.837268
0.837222
0.270557
0.270450
0.270370
0.837127
0.270497
0.270476
0.837193
0.837125
0.837118
0.837250
0.270560
0.837110
0.270476
0.837195
0.837162
0.837161
0.270557
0.837151
0.837136
0.837161
0.270539
0.270475
0.270392
0.837227
0.837168
0.837168
0.837170
0.837274
0.271231
0.270392
0.837154
0.837187
0.270455
0.837146
0.837228
0.837262
0.270551
0.270447
0.837259
0.270426
0.270363
0.837257
0.270557
0.270447
0.837161
0.837222
0.270467
0.270320
0.837161
0.837242
0.837161
0.837158
0.270513
0.270447
0.837138
0.837136
0.270542
0.270497
0.270447
0.837182
0.270450
0.837133
0.837263
0.837209
0.270519
0.270434
0.270497
0.270499
0.270318
0.270398
0.837183
0.270450
0.837138
0.837195
0.270447
0.270460
0.270447
0.270438
0.270407
0.270538
0.837222
0.270450
0.837266
0.270513
0.270497
0.270557
0.837187
0.837250
0.837159
0.837161
0.270458
0.837189
0.271231
0.270497
0.837214
0.837224
0.837209
0.837222
0.270447
0.837166
0.270458
0.837168
0.270551
0.270513
0.270430
0.837109
0.837235
0.837246
0.270434
0.270348
0.270398
0.837213
0.837222
0.270513
0.837161
0.270455
0.837236
0.837211
0.270447
0.270475
0.270557
0.837184
0.837111
0.270321
0.270540
0.837152
0.837222
0.270450
0.270467
0.270438
0.837149
0.837205
0.270497
0.837242
0.837219
0.270463
0.837138
0.837161
0.270310
0.837154
0.270399
0.837222
0.270450
0.837268
0.837161
0.270318
0.270463
0.837138
0.837222
0.270513
0.837113
0.837222
0.837247
0.270318
0.270316
0.706287
0.837241
0.837226
0.270463
0.837171
0.837222
0.837219
0.837190
0.270513
0.837265
0.837265
0.837276
0.270392
0.837258
0.837236
0.270430
0.270399
0.270551
0.270438
0.270557
0.837222
0.270448
0.837249
0.837113
0.270434
0.837222
0.837118
0.709968
0.270450
0.270499
0.270460
0.270438
0.270513
0.396862
0.837249
0.270450
0.837274
0.837202
0.270438
0.837141
0.837238
0.270447
0.837192
0.270438
0.837250
0.270557
0.837130
0.270450
0.270438
0.270438
0.837203
0.837275
0.270398
0.837224
0.270431
0.837176
0.270460
0.270496
0.270320
0.392654
0.837161
0.270470
0.270513
0.837161
0.270519
0.270447
0.837242
0.270455
0.471957
0.837274
0.270455
0.837282
0.706287
0.837193
0.270320
0.270450
0.837255
0.270513
0.270430
0.837256
0.270360
0.270450
0.270450
0.837176
0.270399
0.270310
0.837169
0.837267
0.270310
0.270348
0.837268
0.270513
0.837222
0.837121
0.270438
0.270318
0.837243
0.837222
0.270513
0.392654
0.270374
0.837151
0.837259
0.837173
0.837227
0.270318
0.837183
0.270392
0.270450
0.270312
0.270348
0.837162
0.837252
0.837185
